Sample #	EMG_A01	EMG_A04
3691	0.005035	-0.187073
3692	0.032043	-0.164185
3693	0.027618	-0.063477
3694	0.083771	0.001678
3695	0.095215	0.066223
3696	0.059967	0.131989
3697	-0.011597	0.061951
3698	0.022583	0.108337
3699	-0.003357	0.039368
3700	-0.025787	-0.005646
3701	0.039063	0.000305
3702	0.06134	-0.055847
3703	0.103302	0.023346
3704	0.080109	-0.010223
3705	0.066528	0.037537
3706	0.023499	0.084839
3707	0.096588	0.089722
3708	-0.033569	0.019226
3709	-0.084076	0.063171
3710	-0.046082	-0.046234
3711	0.03067	0.025635
3712	0.019989	0.170593
3713	0.005341	0.216675
3714	0.033417	0.072479
3715	0.058441	-0.167236
3716	0.031281	-0.300598
3717	0.005493	-0.199585
3718	0.006104	-0.016022
3719	0.001984	-0.062714
3720	0.026855	-0.119019
3721	0.050507	-0.058136
3722	0.005035	0.009918
3723	0.038147	0.096588
3724	0.016632	0.150757
3725	0.015259	0.135803
3726	0.00473	0.053864
3727	-0.040131	0.081787
3728	-0.004578	0.123291
3729	0.029449	0.090485
3730	-0.034943	0.06134
3731	0.056	-0.019836
3732	0.069275	-0.033417
3733	0.050659	-0.010376
3734	0.107727	-0.00351
3735	0.086975	0.010071
3736	0.139618	-0.010529
3737	0.046082	0.106049
3738	-0.009155	-0.014343
3739	-0.041199	-0.000305
3740	0.007629	0.049438
3741	0.008698	0.051422
3742	0.046387	0.157013
3743	0.052338	0.120392
3744	0.00473	-0.005493
3745	-0.053406	0.021057
3746	-0.060883	0.010529
3747	0.000153	0.07431
3748	-0.01236	0.148926
3749	-0.050507	0.262756
3750	-0.063782	0.045166
3751	-0.063629	-0.075226
3752	-0.036469	-0.029602
3753	0.044861	0.018463
3754	0.030212	-0.002136
3755	0.100861	0.068512
3756	0.071869	0.028381
3757	0.091858	0.074768
3758	0.031281	0.037384
3759	0.070343	-0.02243
3760	0.10376	0.029449
3761	0.066833	0.015869
3762	0.014648	-0.008087
3763	0.014801	0.02121
3764	-0.075226	-0.048218
3765	0.007019	-0.132141
3766	-0.029602	-0.219421
3767	0.021362	-0.253143
3768	0.005035	-0.206909
3769	-0.04776	-0.001221
3770	0.010223	0.21225
3771	0.050812	0.335999
3772	0.074615	0.203705
3773	0.079346	0.205231
3774	0.066528	0.097961
3775	0.075531	0.11261
3776	-0.010834	0.062103
3777	-0.038452	-0.018158
3778	-0.037384	0.053711
3779	0.007172	0.082092
3780	0.115967	0.085602
3781	0.095215	0.032654
3782	-0.006256	0.032806
3783	-0.099792	0.007172
3784	-0.018616	0.01297
3785	-0.064087	0.003204
3786	-0.010681	0.027771
3787	-0.036316	0.029144
3788	0.033722	0.042267
3789	0.085297	0.035248
3790	0.167389	-0.023651
3791	0.140533	-0.06012
3792	-0.00412	-0.041199
3793	-0.011902	0.037842
3794	0.036316	0.00946
3795	0.046997	0.019226
3796	0.076904	0.044861
3797	0.001678	0.04364
3798	0.023041	-0.029907
3799	0.083008	0.007629
3800	0.052795	0.016937
3801	0.075989	0.030518
3802	0.009766	0.020294
3803	0.069733	-0.043945
3804	0.072327	-0.010681
3805	0.070801	0.013428
3806	0.047302	0.058441
3807	0.083313	0.045624
3808	0.010376	0.029755
3809	-0.00061	-0.008545
3810	0.016022	-0.005341
3811	0.020905	0.045013
3812	0.048828	-0.008087
3813	0.012207	0.020142
3814	-0.003357	0.100403
3815	-0.049133	0.002136
3816	-0.027466	0.0177
3817	-0.005646	-0.053711
3818	0.008392	0.041199
3819	-0.000916	0.041962
3820	-0.002899	0.020752
3821	0.049286	0.094299
3822	0.060577	0.045776
3823	0.022278	-0.025635
3824	-0.010986	0.065308
3825	0.00412	0.024109
3826	0.03067	0.019379
3827	0.031586	0.049133
3828	0.030975	0.093842
3829	0.020752	0.015564
3830	-0.00412	0.059204
3831	0.00824	0.028229
3832	0.049744	0.04776
3833	0.026245	-0.049438
3834	-0.032959	-0.04364
3835	0.016327	0.024109
3836	-0.042877	0.047607
3837	-0.046234	-0.03006
3838	-0.09201	-0.007782
3839	0.0383	0.054474
3840	0.007477	0.05249
3841	0.033722	0.00412
3842	0.072937	0.05661
3843	0.024719	0.014496
3844	0.04715	0.015259
3845	0.110931	0.06485
3846	0.077209	0.021362
3847	0.060425	-0.063782
3848	0.068207	0.060577
3849	0.066986	0.086365
3850	0.114746	0.06424
3851	0.170898	-0.018921
3852	0.122833	0.079346
3853	0.058899	0.027618
3854	0.021515	0.080872
3855	-0.06424	0.001984
3856	-0.105896	0.037842
3857	-0.100098	0.098114
3858	-0.062561	0.068207
3859	-0.035553	0.069733
3860	0.085754	0.000458
3861	0.055542	0.030823
3862	0.015717	0.016022
3863	0.00061	0.00351
3864	0.053406	0.094452
3865	0.050507	0.05127
3866	-0.002289	0.045624
3867	-0.017395	-0.013885
3868	-0.007782	0.000305
3869	-0.031128	0.022278
3870	0.045471	0.028381
3871	-0.014954	0.006256
3872	-0.051727	0.029755
3873	-0.059204	0.013123
3874	-0.055237	0.037384
3875	-0.069275	0.001984
3876	-0.0383	0.034027
3877	-0.003204	-0.01297
3878	0.044861	0.025635
3879	0.046234	0.001526
3880	0.045471	-0.005646
3881	0.125732	0.046082
3882	0.176239	-0.00412
3883	0.122833	0.039978
3884	0.088043	0.029602
3885	0.010681	-0.005646
3886	0.007019	-0.009918
3887	0.007172	-0.011444
3888	0.040131	0.031891
3889	0.010376	0.092773
3890	0.028381	0.059967
3891	0.059357	0.094757
3892	0.026855	0.09903
3893	0.040588	0.054779
3894	0.042419	-0.065613
3895	0.005035	-0.009613
3896	-0.005798	0.122528
3897	0.005493	-0.021362
3898	-0.046844	0.032959
3899	0.018616	0.044403
3900	0.042725	0.033875
3901	0.044708	0.055542
3902	-0.022278	-0.02243
3903	-0.037079	0.016937
3904	0.01358	-0.005646
3905	0.053558	0.020142
3906	0.083618	0.011749
3907	0.058594	-0.026703
3908	0.032196	0.050354
3909	0.019379	-0.0354
3910	0.05249	0.031891
3911	0.045929	0.016174
3912	0.030518	0.065613
3913	0.052338	0.027466
3914	0.029144	0.058136
3915	0.012207	0.001526
3916	0.005646	0.043488
3917	0.00885	-0.00473
3918	0.027771	0.040894
3919	0.048218	0.011597
3920	0.062561	0.020142
3921	0.008087	0.011139
3922	0.029602	0.016327
3923	0.046387	-0.069122
3924	0.014496	-0.018311
3925	-0.049744	0.032196
3926	-0.040894	-0.042725
3927	0.00412	0.024567
3928	-0.032654	0.038147
3929	0.038147	-0.028229
3930	0.123444	0.046234
3931	0.133667	0.01709
3932	0.092468	0.016174
3933	0.06485	0.101776
3934	0.002747	0.013733
3935	0.060883	-0.029144
3936	0.062256	0.055389
3937	0.034943	0.069733
3938	0.052795	-0.028534
3939	0.010834	0.010071
3940	-0.005646	0.009613
3941	-0.012665	0.024567
3942	0.056	-0.017395
3943	0.008698	0.100708
3944	0.031433	-0.020599
3945	-0.026093	0.045471
3946	-0.005798	0.059814
3947	0.016479	0.036469
3948	0.018005	0.031586
3949	0.040741	0.024414
3950	0.004578	0.038147
3951	0.057678	0.051422
3952	0.045471	0.105591
3953	0.024719	0.091095
3954	-0.017548	-0.005493
3955	0.021515	0.078583
3956	0.10498	0.08606
3957	0.047913	0.004425
3958	0.050812	0.100861
3959	0.022278	0.074615
3960	0.007782	0.043488
3961	-0.001984	-0.002441
3962	-0.005798	0.018311
3963	0.032501	0.018768
3964	0.066833	0.019531
3965	0.018005	0.063477
3966	-0.001373	-0.104218
3967	-0.000763	0.105743
3968	0.020905	0.07782
3969	0.067291	-0.006561
3970	0.016785	0.041351
3971	0.028839	0.075378
3972	0.048218	-0.015564
3973	0.006561	0.003357
3974	-0.011292	-0.050964
3975	0.045929	0.015106
3976	0.054474	0.013733
3977	0.057983	0.049896
3978	0.01236	0.027008
3979	0.020142	0.030975
3980	0.004425	-0.015411
3981	-0.013733	0.007477
3982	-0.003967	0.000458
3983	0.030823	0.031281
3984	0.082245	0.072021
3985	0.040131	0.026398
3986	0.060425	-0.042877
3987	0.039825	0.011597
3988	0.053406	-0.046844
3989	0.04425	0.090637
3990	0.038147	0.084686
3991	0.049591	0.053711
3992	0.071564	0.03479
3993	0.007324	0.029449
3994	0.01358	0.008392
3995	-0.006561	0.082397
3996	0.013428	0.110168
3997	0.080872	0.029297
3998	0.06134	0.043488
3999	0.003357	0.072327
4000	-0.015259	0.048218
4001	0.002289	0.01709
4002	0.046539	-0.091858
4003	0.021973	-0.121918
4004	-0.005951	-0.166168
4005	0.049286	-0.119171
4006	0.032043	0.053406
4007	0.03418	0.282135
4008	0.019836	0.326843
4009	0.069275	0.227966
4010	0.072327	0.102386
4011	0.022278	0.02533
4012	0.030823	-0.097198
4013	-0.025177	0.076141
4014	0.053406	0.028992
4015	0.036163	0.135803
4016	0.071411	0.157776
4017	0.07843	0.006409
4018	0.028381	-0.053711
4019	0.018616	-0.070343
4020	0.031891	-0.13382
4021	0.058441	-0.245209
4022	0.045776	-0.256042
4023	0.026093	-0.269928
4024	0.02121	-0.283203
4025	0.002289	0.042572
4026	0.029144	0.097198
4027	0.015106	0.302124
4028	0.008392	0.159149
4029	0.024872	0.16037
4030	0.022125	0.05722
4031	0.014038	0.010071
4032	0.030365	0.016479
4033	0.026093	0.097198
4034	0.038147	0.19989
4035	0.055237	0.153656
4036	0.066833	0.106354
4037	0.020447	0.14328
4038	0.02182	0.079498
4039	0.035248	-0.020905
4040	0.020599	-0.15152
4041	0.037689	-0.284119
4042	0.068665	-0.368958
4043	0.054779	-0.278168
4044	-0.005188	0.124054
4045	0.029907	0.49469
4046	-0.021973	0.341644
4047	-0.005188	0.289001
4048	0.027161	0.071411
4049	0.049591	0.007324
4050	0.041046	-0.070038
4051	0.010834	-0.13504
4052	0.007629	-0.131226
4053	0.015259	-0.12085
4054	0.064087	-0.113678
4055	0.066681	-0.205383
4056	0.037537	0.029449
4057	-0.016785	0.006256
4058	0.016174	-0.10498
4059	-0.003204	-0.113831
4060	0.021667	0.011139
4061	0.022736	0.022736
4062	0.016937	0.110626
4063	0.035858	0.328217
4064	0.051422	0.262909
4065	0.022736	0.189362
4066	0.013885	0.137482
4067	0.072784	0.047455
4068	0.101318	-0.023499
4069	0.022125	-0.086365
4070	0.038147	-0.089417
4071	-0.017548	-0.024719
4072	0.065308	0.065155
4073	0.049744	-0.008392
4074	0.087433	-0.214539
4075	0.035858	-0.102234
4076	0.045471	-0.166626
4077	-0.013733	-0.104828
4078	0.01709	-0.047302
4079	0.015106	0.024414
4080	0.004883	0.041351
4081	0.060883	0.017242
4082	0.047607	0.126953
4083	0.03006	0.06424
4084	-0.011597	0.028076
4085	-0.0354	0.082092
4086	0.038605	0.041962
4087	0.035553	0.101166
4088	0.023651	-0.00946
4089	-0.00946	0.115967
4090	0.002594	0.060883
4091	0.029755	0.156097
4092	0.052643	0.121918
4093	0.07843	0.045471
4094	0.000153	0.046692
4095	-0.00351	0.075836
4096	0.018463	0.059204
4097	0.061646	0.108337
4098	-0.00946	0.050964
4099	0.031738	0.006104
4100	0.025482	-0.01709
4101	-0.049744	-0.017548
4102	0.015564	-0.001373
4103	0.013123	0.029602
4104	0.064087	0.019379
4105	0.050507	-0.010071
4106	0.022125	0.016022
4107	0.063934	-0.052795
4108	0.032349	0.005493
4109	0.051117	-0.014496
4110	0.036926	-0.161133
4111	0.100708	-0.223236
4112	0.069122	-0.26062
4113	0.020752	-0.147705
4114	0.016632	-0.002136
4115	-0.011902	0.320282
4116	0.065918	0.304413
4117	0.034943	0.274506
4118	0.036926	0.219879
4119	0.002136	0.246887
4120	-0.023193	0.171967
4121	0.043335	0.123596
4122	0.048065	0.107574
4123	0.057373	0.018005
4124	-0.000763	0.005493
4125	0.023193	0.071716
4126	0.011139	0.01236
4127	0.034332	0.088959
4128	0.058441	0.03067
4129	-0.021667	0.024872
4130	0.029144	0.056305
4131	0.050354	0.030975
4132	0.027924	0.036926
4133	0.045929	-0.108185
4134	-0.002136	-0.035553
4135	0.00473	0.004578
4136	0.082245	-0.021667
4137	-0.001678	0.023041
4138	0.016174	0.083618
4139	0.007324	0.057983
4140	0.053558	0.025635
4141	0.027008	0.020142
4142	0.044556	-0.012665
4143	0.069122	0.061035
4144	0.068512	0.051727
4145	0.072784	-0.040283
4146	0.045319	-0.057831
4147	0.053558	0.075073
4148	0.032349	0.084686
4149	0.030823	-0.005798
4150	0.025024	0.018616
4151	-0.000153	0.011444
4152	0.014801	0.038452
4153	0.001068	0.023346
4154	-0.039978	0.075989
4155	0.065308	0.153961
4156	0.023193	0.120392
4157	0.00473	0.114136
4158	-0.023499	0.054474
4159	-0.00946	-0.024261
4160	0.042267	-0.036316
4161	0.046539	-0.024261
4162	0.072632	-0.12146
4163	0.111542	-0.101013
4164	0.03952	0.041962
4165	0.0383	0.011444
4166	-0.021515	0.059662
4167	0.086365	0.036011
4168	0.096893	0.056458
4169	0.12207	0.036011
4170	0.0177	-0.011597
4171	0.039368	0.037079
4172	0.038757	0.002899
4173	0.072174	0.038757
4174	0.064697	0.061951
4175	0.054626	0.029144
4176	0.044556	0.093842
4177	0.017242	0.03006
4178	0.027008	0.068512
4179	0.070953	0.130768
4180	0.012665	0.192871
4181	0.019531	0.142365
4182	-0.010529	-0.06546
4183	0.015717	-0.050659
4184	0.029907	-0.013885
4185	0.008087	-0.028534
4186	0.067291	-0.036926
4187	-0.004578	-0.020599
4188	-0.034485	-0.062408
4189	-0.024414	-0.063324
4190	-0.008545	-0.042114
4191	0.037384	-0.079193
4192	0.06546	0.041656
4193	-0.004425	0.030212
4194	0.050964	-0.07019
4195	0.034637	-0.038452
4196	0.028839	-0.0177
4197	0.003815	-0.053253
4198	0.065002	0.069275
4199	0.030823	0.020142
4200	0.01709	0.001068
4201	-0.050507	0.011139
4202	0.018616	0.002441
4203	0.027466	0.037384
4204	0.05249	-0.005493
4205	0.04425	0.102844
4206	0.02655	0.065308
4207	0.00946	0.057678
4208	-0.020294	0.023499
4209	0.048218	0.032806
4210	0.03067	0.064087
4211	0.024414	0.094757
4212	0.018311	0.031281
4213	0.035095	0.00473
4214	0.010529	0.001984
4215	-0.001373	0.041656
4216	0.046387	0.066833
4217	0.085449	0.076141
4218	0.054474	0.072632
4219	0.030518	0.076752
4220	-0.010223	0.037079
4221	0.03891	-0.034637
4222	0.012207	-0.006714
4223	0.033112	-0.065308
4224	0.02655	-0.06073
4225	0.016479	-0.049896
4226	0.005493	-0.054016
4227	0.06958	-0.182648
4228	0.007324	-0.170593
4229	0.042267	-0.093079
4230	0.031586	0.07782
4231	0.025635	0.272217
4232	0.041351	0.361328
4233	0.001221	0.281219
4234	0.032501	0.221405
4235	0.001068	0.192871
4236	0.064545	0.106812
4237	0.034485	0.11261
4238	0.032043	0.084076
4239	-0.045013	0.088501
4240	0.000763	0.063782
4241	0.00946	0.042877
4242	0.04837	0.045166
4243	0.019836	0.000458
4244	0.026703	0.045776
4245	0.032806	0.031738
4246	0.028992	0.011139
4247	0.026855	-0.040131
4248	-0.000153	-0.012207
4249	0.045471	0.027618
4250	0.035248	-0.014343
4251	0.032043	-0.013733
4252	0.020447	0.056458
4253	0.005798	0.024719
4254	0.036621	-0.037079
4255	0.073853	-0.016785
4256	0.106812	-0.003357
4257	-0.01709	0.005798
4258	0.050354	-0.002441
4259	0.028076	0.002747
4260	0.073242	0.018005
4261	0.076752	-0.001678
4262	0.042877	0.075378
4263	0.019379	0.087738
4264	0.005188	0.036926
4265	0.065308	0.015564
4266	0.016327	0.058441
4267	0.06485	0.019836
4268	0.034332	0.101776
4269	0.018921	0.097809
4270	0.029755	0.006714
4271	0.026855	-0.019836
4272	0.027313	-0.08606
4273	0.014801	-0.050964
4274	0.05127	-0.079803
4275	0.036469	-0.050659
4276	-0.000916	-0.019379
4277	0.065765	-0.007172
4278	0.058441	0.073242
4279	0.042877	0.04425
4280	0.034943	0.026855
4281	0.016632	-0.024414
4282	0.035095	-0.01236
4283	0.003815	0.065002
4284	0.052948	0.015259
4285	0.05722	0.04776
4286	0.019684	0.065155
4287	-0.025482	0.091248
4288	-0.035858	0.068817
4289	0.055847	0.04715
4290	0.064087	-0.027466
4291	0.008392	-0.039368
4292	0.06485	-0.080261
4293	0.026703	-0.004272
4294	0.043945	0.048981
4295	-0.004272	0.092316
4296	-0.028229	0.104218
4297	-0.017395	0.112
4298	0.076599	0.100861
4299	0.041962	0.135498
4300	0.001831	0.227509
4301	-0.012817	0.232544
4302	0.020294	0.122223
4303	0.039215	-0.102997
4304	0.067749	-0.15976
4305	-0.016632	-0.175018
4306	0.041046	-0.177612
4307	0.006256	-0.114136
4308	0.033417	-0.13382
4309	-0.001068	-0.125427
4310	0.069275	-0.019379
4311	0.053253	-0.028076
4312	0.048218	0.046234
4313	0.020142	-0.016022
4314	0.033875	0.007324
4315	0.029297	0.025177
4316	0.067444	0.038757
4317	0.053406	0.010376
4318	0.076447	0.020294
4319	0.077362	0.019531
4320	-0.046692	0.034943
4321	0.015717	0.086212
4322	0.048828	0.045929
4323	0.026703	0.082703
4324	0.063171	0.056152
4325	0.040588	0.051422
4326	0.047913	0.060577
4327	0.056458	-0.051422
4328	0.005035	-0.031738
4329	0.074158	0.029144
4330	0.004578	0.103912
4331	-0.001678	0.126343
4332	0.033112	0.109711
4333	-0.011597	0.082397
4334	0.027466	0.023193
4335	0.00473	0.027924
4336	-0.010071	0.039063
4337	0.057373	-0.001373
4338	0.044098	0.020142
4339	0.015259	0.021667
4340	0.027924	0.025024
4341	0.027618	0.067291
4342	0.074615	0.093536
4343	0.01358	0.02182
4344	0.010986	-0.000153
4345	-0.014496	0.043945
4346	0.009308	0.025787
4347	0.041656	0.015869
4348	0.076447	0.02243
4349	0.023651	0.091858
4350	0.029449	0.072937
4351	0.025635	0.029602
4352	0.040741	0.058594
4353	0.047302	0.0383
4354	0.042572	0.085297
4355	0.025635	0.053101
4356	0.017395	0.019531
4357	0.024872	-0.014038
4358	0.014801	-0.005798
4359	0.015411	0.007019
4360	0.01297	0.017395
4361	0.027161	0.086975
4362	0.024567	0.05661
4363	0.009613	-0.001984
4364	0.006561	-0.023041
4365	0.028839	0.013733
4366	0.046997	0.070496
4367	0.050201	0.041809
4368	0.006561	0.027618
4369	0.000763	0.039978
4370	0.034943	0.071106
4371	0.000916	0.053406
4372	0.050964	0.048676
4373	0.030212	-0.015106
4374	0.007935	-0.009155
4375	-0.002289	0.032349
4376	-0.005798	0.008698
4377	0.015717	0.045319
4378	0.036469	0.007172
4379	0.01358	0.064697
4380	0.016479	0.093384
4381	0.016327	0.05188
4382	-0.001526	0.069122
4383	0.021973	0.109558
4384	0.01297	0.162354
4385	0.044403	0.167084
4386	0.014038	0.086517
4387	0.079651	-0.052338
4388	0.039215	-0.059967
4389	0.012207	-0.046997
4390	0.036774	-0.082092
4391	0.05722	-0.038147
4392	0.040283	-0.071869
4393	0.000916	-0.058899
4394	0.00061	-0.026703
4395	0.040436	-0.006714
4396	0.020142	0.005188
4397	0.010834	0.03006
4398	-0.000305	0.005341
4399	-0.007477	0.031891
4400	0.023193	0.042572
4401	0.028381	0.031281
4402	0.000763	0.002289
4403	0.008545	0.051422
4404	0.001678	0.011139
4405	0.024109	0.007172
4406	0.014648	0.014191
4407	0.043488	-0.011902
4408	0.032806	0.037231
4409	0.028839	0.123138
4410	-0.006866	0.124512
4411	0.029297	0.098724
4412	0.000305	0.113678
4413	0.038605	0.121002
4414	0.024414	0.106354
4415	0.058289	0.05188
4416	0.008392	0.043793
4417	-0.000916	-0.007019
4418	-0.01236	-0.001831
4419	0.00061	0.001984
4420	0.057373	-0.001526
4421	0.021362	0.00061
4422	0.039825	-0.044556
4423	0.013733	-0.025635
4424	0.056915	-0.001678
4425	0.062561	0.01236
4426	0.063324	0.052948
4427	0.026093	-0.018005
4428	-0.009155	0.004883
4429	0.002441	0.058136
4430	0.018768	0.034027
4431	0.013885	0.041809
4432	0.068207	0.06012
4433	0.006714	0.057373
4434	-0.012054	0.007477
4435	0.047302	0.091858
4436	0.019989	0.044708
4437	0.06073	0.133514
4438	0.005188	0.174561
4439	0.009003	0.199738
4440	-0.028534	0.050812
4441	0.061493	-0.089722
4442	0.001831	-0.066528
4443	0.026398	-0.071259
4444	-0.02655	-0.070343
4445	-0.004272	-0.054169
4446	0.02594	-0.037537
4447	-0.007477	0.004578
4448	0.032501	0.035095
4449	0.012207	-0.004272
4450	0.016327	-0.016632
4451	0.014191	0.00885
4452	0.040131	0.064392
4453	-0.035095	0.035858
4454	-0.000153	0.026855
4455	0.041504	0.060577
4456	0.06546	0.068359
4457	-0.031433	0.066833
4458	-0.01297	0.014038
4459	0.000916	0.035248
4460	0.025787	0.027618
4461	0.023956	0.062866
4462	0.000153	0.063324
4463	-0.025635	0.03952
4464	0.015106	0.05127
4465	0.047913	0.018616
4466	0.035858	0.002289
4467	0.039063	-0.005188
4468	0.019684	-0.019531
4469	0.065918	0.029449
4470	0.009766	-0.008087
4471	0.010071	-0.018005
4472	-0.012207	-0.02121
4473	0.011597	0.030365
4474	-0.030518	0.013123
4475	0.028839	0.042725
4476	0.055084	0.02121
4477	-0.004883	-0.026398
4478	0.016327	-0.015869
4479	0.021057	0.018768
4480	-0.002899	0.035553
4481	0.015106	0.018311
4482	0.00061	-0.000763
4483	-0.005341	0.021973
4484	0.00946	0.00351
4485	0.045471	0.006561
4486	0.0737	0.016785
4487	-0.003357	0.036011
4488	0.053558	0.066071
4489	0.018005	0.024567
4490	0.036011	-0.009003
4491	0.040283	-0.002289
4492	0.06012	0.039368
4493	0.017548	0.045776
4494	0.033112	0.048676
4495	0.040131	0.04425
4496	-0.014648	0.031433
4497	0.003204	0.026093
4498	-0.039063	0.032196
4499	0.046997	0.040894
4500	0.054169	0.024719
4501	0.043335	0.039825
4502	-0.005188	0.012054
4503	0.043793	0.109558
4504	0.049286	0.071564
4505	0.032654	-0.010681
4506	0.010071	0.041504
4507	0.02121	0.058441
4508	0.008087	0.018768
4509	-0.007477	-0.027313
4510	0.01358	-0.00946
4511	0.012512	0.002594
4512	0.018158	0.020599
4513	0.027618	0.071716
4514	-0.002747	0.118103
4515	-0.005493	0.099182
4516	0.01709	0.032806
4517	0.02533	0.014496
4518	0.04776	-0.021973
4519	0.019836	0.005188
4520	-0.000458	-0.017395
4521	0.030975	0.010071
4522	0.059967	0.140991
4523	0.020447	0.088043
4524	0.067139	0.093384
4525	0.057831	0.153656
4526	0.035553	0.098114
4527	0.023499	0.072784
4528	0.000916	0.027771
4529	0.019226	-0.023193
4530	0.00351	-0.081177
4531	0.033875	-0.039825
4532	0.065308	-0.058746
4533	0.025024	-0.084534
4534	0.079041	-0.019531
4535	-0.000458	-0.040588
4536	0.025787	-0.027161
4537	-0.006561	-0.006409
4538	-0.024414	0.078125
4539	0.010376	0.004578
4540	0.019989	0.011292
4541	0.00412	0.026093
4542	0.019989	0.033875
4543	-0.002441	0.092621
4544	0.010223	0.076447
4545	-0.064087	0.065613
4546	-0.02121	0.131073
4547	0.020447	0.179443
4548	0.039825	0.099182
4549	0.077515	-0.023804
4550	0.057678	0.005646
4551	0.061646	0.055695
4552	0.037079	0.034943
4553	0.099335	0.06897
4554	0.054932	0.024414
4555	0.053406	0.06134
4556	0.036316	0.008392
4557	0.03418	0.005493
4558	0.029449	0.03067
4559	0.067444	0.013275
4560	-0.007629	0.028687
4561	-0.018768	0.078583
4562	-0.010986	0.133667
4563	0.011292	0.012665
4564	0.034943	0.066376
4565	0.034332	0.031891
4566	0.019531	0.016632
4567	0.029755	-0.005493
4568	0.049133	-0.040283
4569	0.024872	-0.03891
4570	0.015717	-0.097504
4571	0.000763	-0.056305
4572	0.022125	-0.032806
4573	0.048523	-0.028076
4574	0.018768	0.050659
4575	0.018768	0.029907
4576	0.009308	0.06897
4577	0.035248	0.129395
4578	-0.000305	0.119019
4579	-0.016174	0.036469
4580	0.028381	0.096893
4581	-0.000458	0.081787
4582	0.040131	0.08667
4583	0.012512	0.045624
4584	0.040283	0.011444
4585	0.011292	-0.032806
4586	0.043182	0.011749
4587	0.017548	0.038147
4588	0.023499	-0.01297
4589	0.052185	-0.052948
4590	0.046692	-0.027161
4591	0.04776	-0.058899
4592	0.029755	0.041656
4593	0.035248	0.072174
4594	0.060577	0.016632
4595	0.03418	-0.021362
4596	-0.002136	-0.100861
4597	0.016479	0.007477
4598	0.046997	0.04715
4599	0.05188	0.102692
4600	0.052643	0.02533
4601	-0.000458	0.046539
4602	0.033875	0.042725
4603	0.03891	0.001678
4604	0.04303	-0.007477
4605	0.057678	-0.046692
4606	0.064697	-0.074158
4607	0.014191	-0.038452
4608	-0.003662	0.051422
4609	0.003052	0.123749
4610	-0.002441	0.070648
4611	-0.002136	0.070038
4612	0.018768	0.070953
4613	0.052185	0.106964
4614	0.019379	0.183716
4615	0.046692	0.147552
4616	0.019531	0.153961
4617	0.019684	0.101776
4618	0.014496	0.115814
4619	-0.025482	0.080566
4620	0.004578	0.100555
4621	0.044403	0.083008
4622	0.02655	0.107727
4623	0.017548	0.028839
4624	-0.01709	0.017548
4625	0.023499	-0.036469
4626	0.002899	-0.07019
4627	-0.001526	-0.028687
4628	0.009613	-0.018311
4629	0.023499	0.019989
4630	0.023499	0.123596
4631	0.102386	0.072937
4632	0.05722	0.009308
4633	0.068665	-0.053864
4634	0.048676	-0.057983
4635	0.026855	-0.017395
4636	0.029449	-0.023804
4637	0.065613	0.028229
4638	0.054169	-0.028076
4639	0.060272	0.004883
4640	0.041351	0.033875
4641	0.042419	0.029449
4642	0.025635	0.055084
4643	0.033417	0.18158
4644	0.006561	0.258026
4645	0.019379	0.121307
4646	-0.018616	-0.061646
4647	0.024109	-0.079803
4648	-0.017395	0.053406
4649	-0.020599	0.011749
4650	0.04425	-0.102386
4651	-0.031738	-0.052643
4652	0.068512	0.0383
4653	-0.021057	0.079651
4654	0.053101	0.142365
4655	0.023041	0.221863
4656	0.026398	0.040131
4657	-0.003052	-0.213318
4658	0.015411	-0.26886
4659	0.05188	-0.197449
4660	0.037537	-0.054169
4661	0.067749	-0.042725
4662	-0.016327	-0.065765
4663	0.050201	-0.115051
4664	0.040588	-0.039215
4665	0.065765	0.040894
4666	0.007477	0.034027
4667	-0.005341	0.068512
4668	-0.002136	0.001678
4669	-0.006714	-0.009308
4670	0.111084	0.009918
4671	0.036163	0.027618
4672	0.059662	0.058136
4673	0.018463	0.03418
4674	0.027008	0.07843
4675	0.027161	0.127869
4676	0.049591	0.177307
4677	-0.005188	0.186768
4678	0.052032	0.091705
4679	0.063324	-0.054474
4680	0.037384	-0.205536
4681	0.003662	-0.217743
4682	0.05127	-0.22049
4683	0.029449	-0.321198
4684	0.001221	-0.235901
4685	0.003357	-0.043945
4686	0.03006	0.163116
4687	0.047913	0.312042
4688	0.063171	0.339203
4689	0.046844	0.241699
4690	0.059967	0.135803
4691	0.045776	0.085907
4692	0.023804	0.130768
4693	0.065002	0.136108
4694	0.051117	0.086517
4695	0.037994	-0.049744
4696	0.0383	-0.099792
4697	0.023041	-0.035095
4698	0.047302	0.103302
4699	0.048523	0.274048
4700	0.057526	0.197754
4701	0.042877	0.057983
4702	-0.001526	-0.112305
4703	0.0354	-0.014496
4704	0.067291	0.043488
4705	0.037231	0.094452
4706	0.054169	0.093384
4707	0.069275	-0.002594
4708	0.080719	0.050049
4709	-0.025482	0.101776
4710	0.026245	0.195313
4711	0.014496	0.074768
4712	-0.013885	0.010071
4713	0.021973	-0.014038
4714	0.037689	0.047455
4715	0.039368	0.052338
4716	0.036926	0.068359
4717	0.03006	0.023346
4718	-0.003357	0.054474
4719	0.02655	0.038605
4720	0.063782	0.073547
4721	0.083466	0.032196
4722	0.056152	-0.011139
4723	0.043488	-0.089569
4724	0.007935	-0.102692
4725	0.046539	-0.083923
4726	0.045624	-0.018768
4727	0.046692	0.055084
4728	0.015106	0.210876
4729	0.019226	0.229034
4730	0.036316	0.204315
4731	0.062256	-0.062561
4732	-0.000153	-0.06134
4733	-0.01297	0.171967
4734	-0.016327	0.181427
4735	-0.007172	0.090179
4736	-0.019226	-0.045624
4737	0.00412	-0.106506
4738	0.011292	-0.060425
4739	0.018463	-0.112
4740	0.048676	-0.160522
4741	0.077057	-0.197906
4742	0.037231	-0.289764
4743	0.028229	-0.293579
4744	0.014496	-0.115051
4745	-0.013275	-0.099182
4746	-0.064392	-0.01358
4747	-0.037231	0.082245
4748	-0.007935	0.085754
4749	-0.033264	0.164795
4750	-0.000916	0.131836
4751	-0.002441	0.109406
4752	0.045471	0.023041
4753	0.060883	0.086212
4754	0.146942	0.228424
4755	0.102692	0.243988
4756	0.055695	0.213165
4757	0.026398	0.139618
4758	0.031738	0.050049
4759	0.022125	-0.032196
4760	0.00351	-0.030212
4761	0.04364	0.000763
4762	0.052643	-0.063782
4763	0.022278	-0.051727
4764	0.050507	-0.007629
4765	0.001984	-0.03891
4766	0.004578	0.011597
4767	0.049286	-0.069122
4768	-0.00824	-0.079498
4769	0.013733	0.263519
4770	0.021362	0.063934
4771	0.04425	-0.042877
4772	-0.011292	-0.023651
4773	-0.012817	0.015259
4774	0.027161	0.104218
4775	0.014648	0.089417
4776	-0.006104	0.061951
4777	0.001526	0.024109
4778	0.007172	0.029602
4779	-0.003357	-0.026093
4780	-0.00473	-0.046082
4781	-0.020142	-0.138855
4782	0.018463	-0.138397
4783	0.039215	-0.156097
4784	0.014648	-0.137177
4785	0.009918	-0.040436
4786	0.019989	0.153503
4787	0.008698	0.342255
4788	0.015869	0.336609
4789	0.072479	0.283661
4790	0.075073	0.190277
4791	0.077972	0.23468
4792	0.056	0.150452
4793	0.033112	0.060577
4794	0.064697	-0.011139
4795	0.04776	-0.062103
4796	0.035706	-0.040894
4797	0.011902	-0.124512
4798	-0.031128	-0.078888
4799	0.022125	-0.032501
4800	0.013123	0.112457
4801	0.016327	0.309448
4802	0.026703	0.400543
4803	0.040283	0.341949
4804	0.067139	0.322571
4805	0.03952	0.093231
4806	0.075836	-0.200958
4807	0.087128	-0.325623
4808	0.109558	-0.281677
4809	0.051727	-0.006409
4810	0.024567	0.108337
4811	0.032196	0.200958
4812	-0.016785	0.105286
4813	-0.036774	0.028839
4814	-0.033569	0.020905
4815	-0.002747	0.054016
4816	-0.006561	0.062561
4817	0.033264	-0.079498
4818	0.031738	-0.068054
4819	0.00885	-0.029297
4820	0.013733	-0.01236
4821	0.013275	0.010071
4822	0.040283	0.03479
4823	0.003357	0.011139
4824	0.06012	0.064697
4825	0.083771	0.050049
4826	0.054016	0.033417
4827	0.067444	0.029602
4828	0.02655	-0.014191
4829	0.030518	-0.018921
4830	0.045929	-0.003052
4831	0.059662	0.037537
4832	-0.001526	0.056
4833	0.003052	-0.000458
4834	-0.044403	-0.019226
4835	0.016479	-0.053711
4836	0.037231	0.021667
4837	0.005798	0.051575
4838	0.010223	0.090332
4839	0.036163	0.052948
4840	0.025177	0.002289
4841	0.036163	-0.014496
4842	0.022583	0.000763
4843	0.071869	0.035858
4844	0.058289	-0.014801
4845	0.040131	-0.106354
4846	0.002136	-0.041199
4847	0.03479	0.076294
4848	0.029602	0.095062
4849	0.018463	0.071564
4850	-0.029907	0.087738
4851	0.028839	0.083313
4852	-0.001373	0.013428
4853	0.077972	-0.02121
4854	0.014801	-0.059814
4855	-0.011292	-0.154572
4856	-0.042419	-0.128784
4857	0.004883	0.041656
4858	0.014343	0.160828
4859	0.042877	0.049744
4860	0.052185	0.066223
4861	0.054016	0.063477
4862	0.202789	-0.010986
4863	0.259094	-0.084991
4864	0.266724	-0.000305
4865	0.265656	0.001373
4866	0.173645	0.170441
4867	0.050049	0.24231
4868	-0.068054	0.013428
4869	-0.267944	-0.210114
4870	-0.251312	-0.30365
4871	-0.246277	-0.298157
4872	-0.224609	-0.171509
4873	-0.127411	0.094147
4874	-0.109863	0.262146
4875	-0.024261	0.278625
4876	-0.057068	0.22522
4877	-0.072021	0.143738
4878	-0.092468	-0.049896
4879	-0.00412	-0.151215
4880	-0.028229	-0.19165
4881	-0.000763	-0.24292
4882	-0.055084	-0.20401
4883	0.040436	-0.060425
4884	0.044861	0.217285
4885	0.127869	0.518036
4886	0.125275	0.411377
4887	0.121002	0.32486
4888	0.094147	0.222473
4889	0.059052	0.152283
4890	0.05249	0.167847
4891	0.012817	0.088806
4892	0.011292	0.05249
4893	0.025635	-0.050201
4894	0.00412	-0.200348
4895	0.018616	-0.206757
4896	-0.011292	-0.085754
4897	-0.000763	-0.035095
4898	0.007629	-0.10376
4899	0.081787	-0.133057
4900	0.106354	-0.111084
4901	0.13382	-0.06073
4902	0.119019	0.06485
4903	0.046692	0.007019
4904	0.079193	-0.050964
4905	0.048981	0.0354
4906	0.020752	0.149231
4907	-0.060883	0.222473
4908	-0.028076	0.299988
4909	0.00946	0.208588
4910	0.025635	0.086517
4911	0.00946	0.050507
4912	0.013733	-0.023346
4913	0.021667	-0.074158
4914	0.03479	-0.022125
4915	0.028229	-0.017548
4916	0.08255	-0.057983
4917	0.032806	-0.04715
4918	0.01236	-0.001831
4919	0.019379	0.117798
4920	0.096741	0.129852
4921	0.087433	0.084991
4922	0.057373	-0.022736
4923	0.030365	-0.01709
4924	0.016632	-0.021973
4925	-0.023193	-0.02594
4926	-0.07431	0.010986
4927	0.016327	0.072174
4928	0.010834	0.017548
4929	-0.002747	-0.036316
4930	0.021362	-0.04776
4931	0.045624	-0.010529
4932	0.052185	0.055389
4933	0.117798	-0.052185
4934	0.02243	-0.01236
4935	0.054169	0.100861
4936	0.061493	0.027618
4937	0.030975	0.028992
4938	0.003204	0.025177
4939	-0.00885	0.005341
4940	-0.006256	-0.029144
4941	-0.003357	-0.032349
4942	0.045776	-0.005798
4943	0.05661	0.108337
4944	0.025024	0.161438
4945	-0.02121	0.109863
4946	-0.018005	0.093689
4947	0.011139	0.019836
4948	0.014496	0.042114
4949	0.010071	0.025787
4950	0.056458	0.083313
4951	0.052032	0.15274
4952	0.218964	0.216217
4953	0.262604	0.231018
4954	0.276947	0.167084
4955	0.20401	0.049133
4956	0.162354	-0.031128
4957	0.093536	-0.059814
4958	-0.026855	-0.077057
4959	-0.251923	-0.14389
4960	-0.259247	-0.139008
4961	-0.268555	-0.159912
4962	-0.21698	-0.132141
4963	-0.159454	-0.070648
4964	-0.072174	0.226135
4965	-0.082092	0.220184
4966	-0.122833	0.237427
4967	-0.092621	0.192108
4968	-0.090942	0.2211
4969	-0.051422	0.210876
4970	-0.01709	0.168304
4971	-0.039673	0.179138
4972	-0.022888	0.241394
4973	0.055389	0.197296
4974	0.191498	0.034332
4975	0.223846	-0.132904
4976	0.18692	-0.157166
4977	0.10025	-0.118713
4978	0.099945	-0.202332
4979	0.074615	-0.349426
4980	0.049591	-0.59906
4981	0.058136	-0.609131
4982	0.079956	-0.664978
4983	0.105743	-0.661163
4984	0.072479	-0.51178
4985	0.056152	-0.258026
4986	0.04303	0.156555
4987	0.017853	0.325012
4988	0.021057	0.270996
4989	0.028534	0.257416
4990	0.00824	0.362091
4991	-0.027466	0.355225
4992	0.032501	0.344696
4993	0.005188	0.375824
4994	0.033264	0.529938
4995	0.004272	0.578766
4996	0.015411	0.28183
4997	0.012207	0.126495
4998	0.007782	0.046997
4999	-0.005188	0.054932
5000	0.057831	0.087128
5001	0.014648	0.134735
5002	0.022278	0.076141
5003	0.036774	-0.010529
5004	0.094299	-0.059357
5005	0.069427	-0.063324
5006	0.088043	0.004425
5007	0.027008	-0.032043
5008	0.031281	-0.044098
5009	0.021973	-0.115967
5010	0.070801	-0.050964
5011	0.006561	-0.040131
5012	-0.014648	-0.044403
5013	-0.101318	-0.015869
5014	-0.063934	0.06073
5015	0.053406	0.047302
5016	0.036163	0.074158
5017	-0.012665	0.062103
5018	-0.051422	0.027313
5019	-0.087738	-0.029755
5020	-0.000305	-0.18631
5021	0.128784	-0.249481
5022	0.160675	-0.194397
5023	0.101166	-0.061188
5024	0.049438	0.039978
5025	0.040131	0.230865
5026	0.049744	0.424194
5027	0.097656	0.399475
5028	0.087891	0.174408
5029	0.027771	0.075836
5030	-0.043488	0.122833
5031	0.019531	0.157928
5032	0.007935	0.172272
5033	0.022278	0.083466
5034	0.001984	0.234833
5035	-0.014343	0.035858
5036	0.03006	-0.019531
5037	0.007782	0.015411
5038	0.069122	-0.006104
5039	0.060577	-0.064392
5040	0.112915	0.042877
5041	0.092926	0.126343
5042	0.010681	0.101013
5043	-0.038605	0.055695
5044	0.007324	-0.083618
5045	0.030518	-0.171356
5046	-0.027924	-0.240631
5047	-0.075073	-0.150604
5048	-0.040588	-0.059204
5049	-0.043335	-0.031738
5050	-0.040741	0.123444
5051	0.044403	0.076141
5052	0.073853	0.035858
5053	0.050354	-0.029297
5054	0.137177	-0.055542
5055	0.108948	-0.130615
5056	0.047607	-0.179138
5057	-0.005341	-0.145569
5058	0.016479	-0.049286
5059	0.115356	-0.036926
5060	0.213623	-0.081482
5061	0.150146	-0.057068
5062	0.135193	-0.031433
5063	0.089417	0.02655
5064	0.002441	0.052948
5065	-0.096588	0.103912
5066	-0.18158	0.016479
5067	-0.180817	0.054626
5068	-0.220642	0.054321
5069	-0.094604	0.02594
5070	-0.11734	0.105896
5071	-0.097961	0.151672
5072	-0.081482	0.115356
5073	-0.063477	-0.069427
5074	-0.081482	-0.002899
5075	-0.089722	-0.000763
5076	-0.09491	0.006104
5077	0.025482	0.000153
5078	0.015717	-0.138702
5079	-0.026398	-0.097198
5080	0.016632	0.045319
5081	0.041046	-0.048828
5082	0.073395	-0.062714
5083	0.02182	-0.060883
5084	0.058441	-0.160675
5085	0.067749	0.089874
5086	0.100861	0.233307
5087	0.003052	0.235443
5088	0.017853	0.23819
5089	-0.012054	0.208435
5090	0.05188	0.152893
5091	0.099335	0.130157
5092	0.069275	0.074768
5093	0.067139	0.003357
5094	0.01297	-0.041504
5095	0.05188	-0.112152
5096	0.05249	-0.032043
5097	0.112915	0.021973
5098	0.119171	0.142365
5099	0.093842	0.030975
5100	0.042267	0.03418
5101	0.010681	0.014496
5102	0.041351	0.075073
5103	0.025787	0.171356
5104	0.003052	0.171204
5105	-0.007629	0.113525
5106	-0.00412	0.003204
5107	0.046387	-0.032501
5108	-0.011139	-0.115509
5109	-0.011749	-0.09903
5110	-0.046234	0.043488
5111	0.054474	0.025177
5112	0.110016	-0.029297
5113	0.09552	-0.17746
5114	0.006409	-0.242004
5115	0.045471	-0.364532
5116	0.051422	-0.480347
5117	0.057526	-0.271759
5118	0.043793	0.091248
5119	0.036011	0.238647
5120	0.03006	0.254059
5121	-0.000916	0.420685
5122	0.002899	0.541992
5123	0.032654	0.443878
5124	0.019836	0.262909
5125	-0.018921	0.235901
5126	-0.014343	0.114441
5127	0.041962	0.035248
5128	0.065918	-0.003204
5129	0.064697	-0.02182
5130	0.027161	-0.013885
5131	0.027161	0.049744
5132	-0.024414	0.091553
5133	0.034485	0.08316
5134	-0.003967	0.003204
5135	0.030212	-0.000305
5136	-0.002289	-0.013428
5137	-0.005341	0.057068
5138	-0.00351	0.070648
5139	0.025787	0.083771
5140	0.039063	0.075684
5141	0.053253	0.066986
5142	0.032806	0.018921
5143	0.014038	-0.054474
5144	0.045776	-0.002289
5145	-0.021515	-0.051727
5146	-0.054169	0.021057
5147	-0.103607	0.023956
5148	-0.151978	0.046234
5149	-0.021515	0.068512
5150	0.127106	0.102081
5151	0.152283	0.084534
5152	0.110168	0.046997
5153	0.027466	-0.059357
5154	0.04425	-0.147858
5155	0.07019	-0.237122
5156	0.04425	-0.189972
5157	0.05722	-0.094452
5158	0.022278	-0.205994
5159	0.005646	-0.188904
5160	0.098877	-0.245819
5161	0.222778	-0.155487
5162	0.209198	0.054626
5163	0.221252	0.073853
5164	0.225372	0.063782
5165	0.200195	0.110474
5166	0.105743	0.085144
5167	-0.131836	0.135803
5168	-0.241241	0.144958
5169	-0.212708	0.122681
5170	-0.245361	0.150909
5171	-0.22049	0.079498
5172	-0.2034	0.13382
5173	-0.19455	0.117035
5174	-0.184631	0.131073
5175	-0.029602	0.014801
5176	0.03952	0.123749
5177	0.040436	0.133362
5178	0.044861	0.090942
5179	0.070953	0.188293
5180	0.047302	0.092316
5181	0.014954	-0.000763
5182	0.048218	0.011749
5183	0.058136	0.001373
5184	0.039978	-0.022278
5185	0.028839	-0.032196
5186	0.002594	0.013733
5187	0.090637	0.009766
5188	0.061188	0.015259
5189	0.033569	-0.284882
5190	0.023499	-0.166016
5191	0.036011	-0.128326
5192	0.029449	-0.057526
5193	0.066681	0.085754
5194	0.022583	0.218811
5195	-0.014191	0.347748
5196	0.019073	0.234528
5197	0.05722	0.167542
5198	0.081024	0.126038
5199	0.027466	0.010834
5200	0.03479	-0.097809
5201	0.036469	-0.066986
5202	0.037384	0.059509
5203	0.020447	0.201416
5204	0.053101	0.221863
5205	0.035248	0.124664
5206	0.0383	-0.027924
5207	0.114136	0.055847
5208	0.126801	0.015411
5209	0.145264	0.132599
5210	0.085602	0.258331
5211	0.000916	0.07019
5212	0.01709	-0.061646
5213	0.007324	-0.168915
5214	0.074005	-0.066681
5215	0.069275	-0.111847
5216	-0.007935	-0.123444
5217	0.06958	-0.045776
5218	0.063477	-0.068054
5219	0.010986	-0.125885
5220	0.01358	-0.164185
5221	0.04837	-0.184937
5222	0.069122	-0.18692
5223	0.016022	-0.091248
5224	-0.006256	-0.139008
5225	0.00351	-0.197906
5226	0.016174	-0.062866
5227	-0.004272	0.225677
5228	-0.00946	0.323029
5229	-0.038147	0.248871
5230	-0.046234	0.213776
5231	-0.058289	0.081177
5232	-0.070648	0.066681
5233	-0.016327	0.029297
5234	-0.179901	-0.008698
5235	-0.209198	-0.053101
5236	-0.12558	-0.07843
5237	0.12146	-0.096893
5238	0.33844	-0.071716
5239	0.329742	-0.057526
5240	0.38208	-0.105438
5241	0.389099	-0.069275
5242	0.167847	-0.06134
5243	-0.051575	-0.055847
5244	-0.074768	-0.040588
5245	-0.21347	0.084229
5246	-0.25116	0.061035
5247	-0.256195	0.090027
5248	-0.242462	0.076752
5249	-0.184174	-0.013885
5250	-0.173035	0.007172
5251	-0.090179	0.00885
5252	0.110016	0.088654
5253	0.176544	0.114899
5254	0.22049	0.067444
5255	0.162048	0.031281
5256	0.114594	0.065155
5257	0.094299	0.016785
5258	0.003357	0.009003
5259	0.039978	0.010986
5260	0.015869	0.016327
5261	0.085144	0.09491
5262	0.016174	0.070343
5263	-0.000916	0.040894
5264	-0.010681	0.06546
5265	0.063934	0.056
5266	0.064697	0.068817
5267	0.084991	0.04776
5268	0.045166	0.024414
5269	0.016174	-0.009003
5270	0.037384	0.076447
5271	0.070496	0.095062
5272	0.008087	0.045013
5273	-0.01297	0.03067
5274	-0.079956	-0.002289
5275	-0.124664	0.023346
5276	-0.048676	0.028687
5277	-0.040894	0.056458
5278	-0.040894	-0.010986
5279	-0.039673	0.004883
5280	0.100403	0.321503
5281	0.046997	0.433502
5282	0.016632	0.192261
5283	0.005035	0.172882
5284	-0.002594	0.154724
5285	0.015411	0.078125
5286	0.007477	0.034637
5287	0.045776	0.104218
5288	0.018311	0.06134
5289	0.026245	0.024261
5290	0.036163	-0.009613
5291	0.037994	-0.028687
5292	0.001984	-0.032654
5293	0.036011	-0.058899
5294	-0.000153	-0.039673
5295	0.010071	-0.095673
5296	0.036163	-0.045471
5297	0.015259	0.001068
5298	0.027466	0.063782
5299	0.05127	0.066681
5300	0.06897	0.045319
5301	0.009918	-0.016174
5302	0.080109	-0.033264
5303	0.00946	0.04425
5304	-0.019379	0.083466
5305	-0.000153	0.158997
5306	0.05249	0.160522
5307	0.069275	0.106964
5308	0.124664	-0.00351
5309	0.145264	-0.089264
5310	0.113831	-0.158997
5311	0.146484	-0.089111
5312	0.115051	-0.075073
5313	0.075531	-0.152283
5314	-0.065155	-0.169983
5315	-0.035095	-0.114136
5316	0.000153	0.059662
5317	-0.024567	0.052948
5318	-0.030975	0.049286
5319	-0.032654	-0.010986
5320	0.062561	-0.06073
5321	-0.027313	-0.019684
5322	-0.006256	0.015869
5323	0.00412	0.108795
5324	-0.036469	0.146942
5325	-0.019531	0.052185
5326	0.045013	-0.028992
5327	0.090332	0.025482
5328	0.049591	0.054474
5329	0.025635	0.073547
5330	0.018158	0.006256
5331	0.113525	0.106049
5332	0.066376	0.050964
5333	0.077667	0.02243
5334	0.144653	0.025177
5335	0.280151	0.027466
5336	0.36087	0.077515
5337	0.303497	0.107117
5338	0.223389	0.151367
5339	0.210114	0.118256
5340	0.148163	0.06897
5341	-0.137787	-0.032043
5342	-0.3125	-0.088959
5343	-0.329285	-0.071411
5344	-0.260315	-0.056915
5345	-0.164032	0.005035
5346	-0.125275	-0.036621
5347	-0.093689	0.026703
5348	-0.222473	-0.005035
5349	-0.378113	-0.027313
5350	-0.169678	-0.087891
5351	-0.113525	-0.09964
5352	-0.019226	-0.06546
5353	0.074615	-0.027313
5354	0.354004	0.058441
5355	0.422668	0.030823
5356	0.386353	0.009766
5357	0.389709	0.053558
5358	0.239258	0.09552
5359	0.095673	0.105743
5360	-0.022736	0.075531
5361	-0.10849	0.057983
5362	-0.108185	0.048065
5363	-0.010376	0.099945
5364	-0.033264	0.110931
5365	0.002289	0.023193
5366	0.008087	0.050201
5367	-0.006561	0.085297
5368	0.008392	0.016174
5369	0.02182	-0.000305
5370	0.020752	0.059204
5371	0.080566	0.078735
5372	0.101624	0.11795
5373	0.118103	0.099335
5374	0.026398	0.06073
5375	0.041809	-0.085297
5376	0.076752	-0.031281
5377	0.006561	-0.102844
5378	0.047455	-0.202179
5379	0.009918	-0.252533
5380	-0.007629	-0.24826
5381	0.035095	-0.200958
5382	0.052032	0.127716
5383	0.028229	0.383759
5384	0.084076	0.426636
5385	0.045929	0.272675
5386	0.071869	0.167542
5387	0.028229	0.134735
5388	0.062714	0.020294
5389	-0.079498	-0.028534
5390	-0.161896	-0.07782
5391	-0.16922	-0.103149
5392	-0.194244	-0.097809
5393	-0.106049	0.114136
5394	-0.139465	0.193634
5395	-0.02533	0.162659
5396	0.181885	0.124817
5397	0.33783	0.108337
5398	0.229645	0.076904
5399	0.219269	-0.090027
5400	0.112457	-0.147095
5401	0.112762	-0.1474
5402	0.047607	-0.21698
5403	0.080414	-0.299377
5404	0.022888	-0.337524
5405	-0.007477	0.018921
5406	0.090942	0.395203
5407	0.148621	0.323639
5408	0.128632	0.210114
5409	0.024414	0.155029
5410	0.038605	0.143585
5411	0.019073	0.206146
5412	0.263214	0.206909
5413	0.368347	0.15625
5414	0.275574	0.152588
5415	0.210876	0.131836
5416	0.185547	0.153351
5417	-0.046234	0.171356
5418	-0.413666	0.167694
5419	-0.435944	0.16983
5420	-0.447693	0.081482
5421	-0.210266	-0.020905
5422	-0.134277	-0.079041
5423	-0.038757	-0.034485
5424	-0.005035	-0.075073
5425	-0.006104	-0.097504
5426	0.00412	-0.170898
5427	0.051117	-0.110626
5428	0.015411	-0.006104
5429	-0.00946	0.080414
5430	-0.078583	0.196075
5431	-0.016785	-0.011749
5432	0.001526	-0.148163
5433	0.073242	-0.074768
5434	0.104675	-0.089569
5435	-0.023651	-0.135803
5436	0.019226	-0.013885
5437	-0.046692	0.039825
5438	0.041504	0.0914
5439	0.041046	0.042725
5440	0.022888	-0.006714
5441	-0.040131	-0.015564
5442	0.069427	-0.032806
5443	0.034485	-0.046844
5444	0.096436	0.014648
5445	0.035706	-0.043945
5446	0.076294	-0.031281
5447	0.041809	-0.065002
5448	0.014191	-0.016327
5449	0.086517	-0.040588
5450	0.031586	-0.009155
5451	0.02533	0.050201
5452	0.07019	0.06958
5453	-0.024719	0.032196
5454	-0.000916	0.072784
5455	0.024872	0.011902
5456	0.144043	0.023499
5457	0.144653	0.085907
5458	0.100403	0.062866
5459	0.043945	0.049438
5460	0.037384	0.16037
5461	0.025635	0.163269
5462	0.075989	0.007324
5463	0.06012	-0.098877
5464	0.04837	-0.149841
5465	0.028534	-0.102997
5466	0.02533	-0.068665
5467	0.058746	-0.02243
5468	0.060272	-0.058136
5469	0.003815	-0.044708
5470	-0.00061	-0.136566
5471	-0.055237	-0.197906
5472	-0.072784	-0.035553
5473	-0.08255	0.156097
5474	-0.074768	0.387573
5475	-0.067749	0.353241
5476	-0.061951	0.213776
5477	0.016022	0.218658
5478	0.121613	0.194855
5479	0.063324	0.109558
5480	0.192719	-0.106812
5481	0.145111	-0.216827
5482	0.16861	-0.242462
5483	0.165253	-0.119934
5484	0.120392	0.08728
5485	0.095978	0.231934
5486	0.006104	0.131989
5487	-0.041656	0.060425
5488	-0.016785	0.152435
5489	0.050354	0.195618
5490	-0.007935	0.184937
5491	0.009918	0.064392
5492	-0.010681	0.019226
5493	-0.004578	-0.006714
5494	0.056763	0.063782
5495	0.02594	-0.023804
5496	-0.024109	-0.143585
5497	-0.016937	-0.09201
5498	-0.006256	0.028992
5499	-0.019836	0.039215
5500	-0.029755	-0.002289
5501	-0.018005	-0.001068
5502	0.006561	-0.027924
5503	0.077209	-0.034332
5504	0.040588	-0.040588
5505	0.032043	0.110474
5506	0.032501	0.284882
5507	-0.022278	0.35202
5508	0.102692	0.119171
5509	0.075989	-0.049744
5510	0.186157	-0.070038
5511	0.308533	-0.114746
5512	0.340729	-0.010834
5513	0.325623	0.011597
5514	0.259552	0.012817
5515	0.101624	0.010223
5516	-0.231018	-0.007324
5517	-0.412445	-0.006714
5518	-0.364838	-0.102081
5519	-0.291901	-0.261383
5520	-0.146179	-0.212402
5521	-0.092316	-0.208435
5522	-0.02594	-0.159149
5523	-0.045624	-0.036011
5524	-0.012817	0.218201
5525	0.057526	0.353241
5526	-0.031433	0.290833
5527	0.009613	0.159912
5528	-0.020752	0.098877
5529	0.018921	0.079346
5530	0.009613	0.095062
5531	-0.00885	0.180359
5532	-0.040894	0.145416
5533	-0.022278	0.117493
5534	0.024719	0.095978
5535	0.022278	-0.016479
5536	0.023651	0.062103
5537	0.14801	0.122223
5538	0.079803	0.067139
5539	0.001373	-0.016022
5540	-0.018768	-0.032959
5541	0.136261	-0.048065
5542	-0.000916	-0.007172
5543	0.061493	0.011597
5544	0.082245	0.003052
5545	0.076447	-0.056152
5546	0.04425	-0.046234
5547	-0.024567	-0.012817
5548	0.025482	0.023193
5549	0.028687	0.050812
5550	0.002747	0.093079
5551	-0.001221	0.074615
5552	-0.015106	-0.046539
5553	0.082092	-0.126953
5554	0.093842	-0.22934
5555	0.021057	-0.228424
5556	-0.001526	-0.240631
5557	-0.024414	-0.157928
5558	-0.188904	0.033417
5559	-0.224915	0.220032
5560	-0.149384	0.27359
5561	-0.122223	0.217285
5562	-0.034027	0.08606
5563	0.151062	-0.077057
5564	0.21637	-0.077362
5565	0.301208	0.015869
5566	0.282745	0.312958
5567	0.174103	0.341187
5568	0.15564	0.182953
5569	0.137634	0.22583
5570	0.124359	0.317993
5571	0.048523	0.291748
5572	0.025482	0.142975
5573	0.002441	0.037231
5574	0.002136	0.073395
5575	0.038605	0.049591
5576	0.00824	-0.024109
5577	0.041504	-0.163727
5578	0.067749	-0.120544
5579	0.058441	-0.07843
5580	0.122375	0.032196
5581	0.141296	0.102234
5582	0.057068	0.146332
5583	0.069733	0.120544
5584	0.127411	0.121918
5585	0.093689	0.104218
5586	0.078735	0.075684
5587	0.096283	0.122375
5588	0.017853	-0.190277
5589	0.028992	-0.133362
5590	0.011292	-0.145264
5591	-0.026245	-0.10498
5592	-0.015717	-0.075073
5593	-0.029297	-0.069885
5594	-0.031891	-0.020599
5595	-0.095367	0.002747
5596	-0.085144	-0.005951
5597	-0.041962	-0.011139
5598	-0.02121	0.016937
5599	-0.204773	-0.003662
5600	0.041962	0.033264
5601	-0.004272	0.021362
5602	-0.031586	-0.001373
5603	-0.067902	0.015869
5604	-0.037079	0.050201
5605	0.014496	0.003052
5606	0.066528	-0.021362
5607	0.137024	0.01236
5608	0.096893	0.046234
5609	0.099182	0.034027
5610	0.057831	0.020905
5611	0.098419	0.003357
5612	0.155334	-0.00412
5613	0.176392	-0.010376
5614	0.079498	-0.019226
5615	0.103912	0.038147
5616	-0.042877	-0.04303
5617	0.0354	-0.009918
5618	0.336456	0.016479
5619	0.457916	0.056152
5620	0.397949	0.021057
5621	0.307465	0.027008
5622	0.155029	-0.004272
5623	-0.15274	0.069275
5624	-0.47699	-0.015564
5625	-0.508881	-0.008545
5626	-0.289459	-0.006409
5627	-0.186768	0.011902
5628	-0.229034	0.038452
5629	-0.174561	0.060577
5630	-0.154724	0.036316
5631	-0.027313	0.008087
5632	-0.023041	0.025177
5633	0.02655	0.028534
5634	-0.051727	0.006409
5635	-0.226288	0.043488
5636	-0.286713	0.062561
5637	-0.287628	0.026855
5638	-0.129089	0.080414
5639	0.010529	0.009918
5640	0.077667	0.016174
5641	0.227661	0.011597
5642	0.166473	0.044861
5643	0.139008	0.016785
5644	0.128632	-0.006409
5645	0.168762	-0.024109
5646	0.082855	0.021973
5647	0.062256	0.04425
5648	0.081329	0.044708
5649	0.100861	0.011292
5650	0.131683	-0.00473
5651	0.084381	0.025482
5652	0.110474	0.006104
5653	0.048676	0.016937
5654	0.068817	0.011902
5655	0.045471	-0.00412
5656	0.013275	0.024719
5657	-0.026093	0.056915
5658	-0.101776	0.071259
5659	-0.042114	-0.00824
5660	0.028381	0.013123
5661	0.113831	-0.031586
5662	0.126953	0.034027
5663	0.031891	0.010376
5664	0.033112	-0.018921
5665	0.052948	-0.023041
5666	0.097961	0.05661
5667	-0.005798	0.069275
5668	-0.062866	0.01709
5669	-0.076599	0.063629
5670	0.055847	0.026855
5671	-0.026093	0.04425
5672	0.027161	0.044556
5673	0.024567	0.052795
5674	0.044861	0.00412
5675	0.027924	-0.011597
5676	0.041504	0.050049
5677	0.018921	0.023193
5678	0.081329	0.023193
5679	0.056915	0.012817
5680	0.037537	0.011444
5681	0.03479	0.020599
5682	0.012512	0.045013
5683	0.041809	0.056915
5684	0.079651	0.074921
5685	0.058136	0.015411
5686	0.018311	0.062714
5687	-0.014496	0.008392
5688	-0.131073	0.043945
5689	-0.123138	0.016479
5690	-0.077972	0.027161
5691	-0.091248	0.038757
5692	-0.077515	0.028381
5693	-0.014801	0.040436
5694	0.033417	0.029144
5695	0.108948	0.036926
5696	0.204163	0.018768
5697	0.183258	0.048523
5698	0.129242	0.005951
5699	0.124512	0.00061
5700	0.084686	0.019073
5701	0.027466	0.001678
5702	0.066528	0.020447
5703	-0.147552	0.07782
5704	-0.289307	0.003357
5705	-0.341644	-0.009766
5706	-0.292969	0.04303
5707	-0.224609	0.032349
5708	-0.067291	0.023499
5709	0.107117	0.029602
5710	0.289459	0.014648
5711	0.459595	0.007324
5712	0.413055	0.022888
5713	0.273743	-0.014496
5714	0.161591	0.029144
5715	0.079956	-0.006104
5716	0.091553	0.019836
5717	0.072479	0.06424
5718	0.032501	0.023499
5719	-0.072937	0.022125
5720	-0.065002	0.026855
5721	-0.010071	0.019226
5722	-0.003815	0.008698
5723	-0.048828	0.005035
5724	0.009003	0.032806
5725	-0.046082	-0.005798
5726	0.029755	0.050049
5727	0.014496	0.006866
5728	0.061493	0.037842
5729	0.114288	0.034943
5730	0.06958	0.045013
5731	0.112	-0.008698
5732	0.063324	0.082703
5733	0.049286	0.025635
5734	0.015717	0.031128
5735	0.00061	-0.010376
5736	0.018463	0.034332
5737	0.019073	0.030365
5738	0.00885	0.030518
5739	-0.022278	0.006256
5740	-0.065613	0.02533
5741	-0.06073	0.018921
5742	0.038605	-0.017242
5743	0.012665	0.069275
5744	-0.05188	0.048218
5745	-0.025177	0.012054
5746	0.003204	0.065765
5747	0.079041	0.066986
5748	0.079956	0.073547
5749	0.091553	0.003815
5750	0.051117	0.028687
5751	0.05249	0.016785
5752	0.019531	0.067139
5753	0.072021	0.073242
5754	0.015564	0.033875
5755	0.035095	0.016937
5756	-0.02121	-0.046997
5757	0.046082	-0.016022
5758	0.047455	0.016327
5759	0.018616	0.030518
5760	0.014038	0.026398
5761	0.076294	-0.013275
5762	0.091553	-0.00351
5763	0.010529	0.027618
5764	0.058594	0.013123
5765	0.057678	0.062561
5766	0.070038	0.033417
5767	0.065002	0.029602
5768	-0.00473	0.000763
5769	-0.014343	0.088196
5770	-0.031586	0.029297
5771	-0.028992	-0.010223
5772	0.114594	-0.014648
5773	0.074158	0.026398
5774	0.055084	0.067902
5775	0.043335	0.097504
5776	0.073395	0.05127
5777	0.054321	0.046844
5778	-0.037384	0.04837
5779	-0.196381	-0.006714
5780	-0.278625	0.016327
5781	-0.12146	0.027618
5782	-0.020599	-0.000916
5783	0.102234	0.056305
5784	0.238037	0.065765
5785	0.153961	0.001678
5786	0.189514	0.040588
5787	0.098419	0.009155
5788	0.090332	0.007019
5789	0.048523	0.085907
5790	0.03006	0.053406
5791	-0.024414	0.023193
5792	-0.082703	0.042267
5793	0.022736	-0.014648
5794	0.001221	0.023804
5795	0.028839	0.044403
5796	0.034943	0.024414
5797	0.031738	0.072174
5798	0.035858	0.025482
5799	0.100098	0.044708
5800	0.066681	0.02594
5801	0.080414	0.011139
5802	0.073853	-0.025635
5803	0.047607	-0.02533
5804	0.056763	0.028992
5805	0.057068	0.018311
5806	0.018768	-0.02655
5807	0.021057	0.034027
5808	-0.009918	-0.008698
5809	-0.007935	0.006256
5810	0.052795	0.017242
5811	0.024109	-0.005188
5812	-0.01297	0.009155
5813	0.01358	0.014801
5814	0.052032	0.034943
5815	0.040436	0.060272
5816	0.038605	0.014038
5817	0.073853	-0.011444
5818	0.021973	0.023956
5819	0.062866	0.050354
5820	0.038452	0.037994
5821	0.0383	0.0914
5822	0.013885	0.061493
5823	-0.012512	0.013733
5824	-0.024109	0.048981
5825	-0.007477	0.04837
5826	-0.034485	0.081024
5827	-0.009155	0.061493
5828	0.017395	-0.005188
5829	0.029907	0.050659
5830	0.1091	-0.027161
5831	0.056458	0.005798
5832	0.001221	0.090942
5833	0.053558	0.082092
5834	0.028381	0.052643
5835	0.056152	-0.014191
5836	0.012054	-0.007935
5837	-0.016937	0.003662
5838	0.034943	0.016022
5839	0.031738	0.005035
5840	0.086975	0.026245
5841	0.054321	0.024872
5842	-0.022736	0.042572
5843	0.037689	-0.002899
5844	0.033569	0.022736
5845	0.036926	0.045471
5846	0.027161	0.083466
5847	0.054321	-0.020142
5848	0.056458	0.006256
5849	0.055084	0.029602
5850	-0.006561	0.006256
5851	0.006104	-0.000916
5852	0.008087	0.017395
5853	0.050049	0.021667
5854	0.080566	0.015106
5855	0.033264	0.076752
5856	0.051422	-0.024719
5857	0.019836	0.004272
5858	0.043182	0.021515
5859	0.010376	-0.032349
5860	0.127563	-0.00885
5861	-0.000153	-0.001068
5862	-0.002289	0.032043
5863	0.086365	-0.036011
5864	0.145721	0.012054
5865	0.080872	0.044403
5866	0.015564	0.041351
5867	0.002899	0.036926
5868	0.065918	0.062408
5869	0.077209	0.069885
5870	0.039368	0.015869
5871	0.011902	0.030518
5872	0.022583	-0.050507
5873	0.031433	0.00473
5874	-0.003052	0.035248
5875	0.075531	0.049133
5876	-0.009918	0.014343
5877	0.018158	0.002594
5878	0.047913	0.050659
5879	-0.007629	0.01709
5880	0.049133	0.032196
5881	0.014954	0.018463
5882	-0.003204	0.038605
5883	-0.005035	0.028229
5884	-0.016174	0.055084
5885	0.040894	0.056
5886	-0.074768	0.041351
5887	0.050812	-0.056763
5888	-0.000305	-0.024719
5889	-0.030975	-0.00412
5890	0.012207	0.011444
5891	0.06134	0.059357
5892	0.038452	0.03067
5893	0.020752	-0.006256
5894	0.105591	0.106201
5895	0.019531	0.097504
5896	-0.027466	0.093079
5897	0.028534	0.075684
5898	0.041656	0.025177
5899	0.003357	0.098724
5900	-0.01709	0.058594
5901	0.002136	0.011139
5902	-0.040131	0.072021
5903	-0.029755	-0.05661
5904	0.157776	-0.183105
5905	0.066528	-0.080872
5906	0.054016	-0.037384
5907	0.026398	0.007172
5908	0.033417	0.112457
5909	0.034637	0.044708
5910	0.056458	0.021057
5911	0.069885	0.031586
5912	0.019226	0.041962
5913	0.003357	0.050964
5914	0.079346	-0.01236
5915	0.04776	0.051422
5916	0.079956	-0.009003
5917	0.055084	0.016479
5918	0.000763	0.004425
5919	0.055847	0.044403
5920	0.024261	0.115509
5921	0.014801	-0.013123
5922	0.040283	0.054321
5923	0.038605	0.012817
5924	-0.039063	0.066071
5925	0.065765	0.107269
5926	0.024414	0.223999
5927	-0.035706	0.130615
5928	0.015106	0.023193
5929	-0.016174	0.056458
5930	0.031738	0.188141
5931	0.092468	0.249634
5932	0.004578	0.226135
5933	0.028534	0.068665
5934	0.028839	-0.14328
5935	0.016327	-0.117188
5936	0.034637	-0.052948
5937	0.024567	-0.082855
5938	0.059204	-0.084991
5939	0.020294	-0.116119
5940	0.004272	-0.090179
5941	0.058899	-0.118561
5942	0.052185	-0.029755
5943	-0.011597	-0.005798
5944	-0.008545	-0.027924
5945	0.019989	-0.014954
5946	0.053864	0.018768
5947	0.097504	-0.00473
5948	0.056458	-0.019073
5949	0.013123	-0.058289
5950	0.003357	0.079193
5951	0.042877	0.092468
5952	0.048828	0.071259
5953	0.015564	0.08728
5954	0.004425	0.107574
5955	0.023041	0.007172
5956	0.05661	0.029297
5957	0.014496	0.044403
5958	-0.002594	0.068359
5959	0.028076	-0.046997
5960	0.083008	-0.106964
5961	0.039368	0.003967
5962	0.009308	-0.084381
5963	-0.04364	-0.087433
5964	0.019531	-0.12619
5965	0.06012	-0.146179
5966	0.063477	-0.090179
5967	0.047302	0.025482
5968	0.058594	0.218048
5969	0.021362	0.310516
5970	0.037079	0.214386
5971	0.041046	0.090027
5972	0.089111	0.013275
5973	0.046844	-0.007019
5974	0.048065	0.053864
5975	-0.009918	0.191193
5976	0.057983	0.109711
5977	0.062408	0.158997
5978	0.06424	0.11734
5979	0.048828	0.041504
5980	0.031586	-0.047607
5981	0.019073	0.033569
5982	0.041351	-0.059509
5983	0.097198	0.007324
5984	0.016937	0.026855
5985	0.000458	0.043945
5986	-0.028534	0.06134
5987	0.018463	-0.028839
5988	0.085754	0.017242
5989	0.018158	0.032501
5990	0.047455	-0.014191
5991	-0.010376	-0.045624
5992	0.110931	-0.079651
5993	0.023346	-0.042114
5994	0.060883	-0.036621
5995	0.053253	-0.028076
5996	0.001373	0.116577
5997	0.077972	0.106354
5998	0.053406	0.073395
5999	0.026398	0.027771
6000	-0.00885	0.055084
6001	-0.013123	0.007172
6002	-0.010986	0.05188
6003	0.024719	0.100708
6004	-0.021362	-0.001221
6005	0.0383	0.004578
6006	-0.027618	0.00946
6007	-0.001068	-0.006256
6008	0.016632	-0.036163
6009	0.033112	-0.007782
6010	-0.031586	0.034637
6011	0.015411	0.079346
6012	-0.002289	0.12558
6013	0.02594	0.079041
6014	0.023956	0.113373
6015	0.03067	0.079803
6016	0.011749	0.14679
6017	0.030518	0.158234
6018	0.016022	0.105438
6019	0.029449	0.02533
6020	0.069275	-0.132599
6021	0.081177	-0.19455
6022	0.03891	-0.195007
6023	0.006409	-0.192261
6024	0.06424	-0.149689
6025	0.034943	-0.130463
6026	0.046082	-0.001678
6027	0.039215	0.032043
6028	0.035706	0.183105
6029	0.037231	0.176849
6030	0.057068	0.059814
6031	0.032196	0.000916
6032	0.038452	-0.164948
6033	0.003357	-0.229187
6034	0.024261	-0.224457
6035	0.029144	-0.030518
6036	0.035553	0.073853
6037	0.022736	0.06424
6038	0.016632	0.107574
6039	0.003815	0.145874
6040	-0.010071	0.091858
6041	0.06012	0.070648
6042	0.022278	0.124817
6043	0.03891	0.03067
6044	0.00351	0.066986
6045	0.008698	0.059204
6046	0.028381	0.074921
6047	0.078278	0.066986
6048	0.068512	0.01297
6049	-0.001831	0.033875
6050	-0.028229	0.030975
6051	0.011292	0.072327
6052	0.056	0.08667
6053	0.059967	0.120697
6054	0.042572	0.009766
6055	0.031281	-0.010681
6056	0.0737	-0.061493
6057	0.043488	0.066986
6058	0.040588	0.074005
6059	0.009003	0.03891
6060	0.018463	0.010071
6061	0.015411	0.050201
6062	0.018158	0.028992
6063	0.057526	0.123749
6064	0.033264	0.141449
6065	0.083618	0.127716
6066	0.052032	0.059662
6067	0.066071	0.041199
6068	0.054016	-0.019073
6069	0.005798	0.023041
6070	0.055084	-0.070648
6071	-0.014801	-0.073395
6072	0.046539	-0.081024
6073	0.017548	-0.055237
6074	0.035553	0.009613
6075	0.05249	-0.00061
6076	0.003204	0.006714
6077	0.117645	-0.008698
6078	-0.02594	0.066681
6079	0.077515	0.038147
6080	0.057678	0.050812
6081	0.045929	-0.039673
6082	0.057678	-0.031891
6083	0.035706	0.038605
6084	0.086365	0.09613
6085	-0.008087	0.140381
6086	0.056915	0.041809
6087	0.027161	0.020905
6088	0.04303	0.046082
6089	-0.000763	0.034485
6090	0.00473	0.04425
6091	0.015869	0.057678
6092	0.027313	0.032806
6093	0.042419	0.066223
6094	0.037384	0.017853
6095	0.011139	0.056915
6096	-0.025635	0.069275
6097	-0.002899	-0.016022
6098	0.032654	0.03418
6099	0.038147	0.001831
6100	-0.002136	0.14801
6101	0.043945	0.330811
6102	-0.001373	0.314484
6103	0.057068	0.203247
6104	0.041046	0.130463
6105	0.010986	0.10849
6106	0.013123	0.02121
6107	-0.027313	0.051727
6108	0.002747	0.041046
6109	0.022125	0.01297
6110	0.051575	-0.012207
6111	-0.016327	0.001221
6112	0.052643	-0.02121
6113	0.04715	0.055237
6114	0.061188	-0.007629
6115	0.041504	-0.033875
6116	0.024261	-0.052338
6117	0.025482	-0.002136
6118	0.045471	0.002441
6119	0.05127	0.035706
6120	0.06546	0.023956
6121	0.029602	0.006409
6122	0.007172	-0.00885
6123	0.040436	-0.051575
6124	0.052643	0.009308
6125	0.065613	0.036469
6126	0.00473	-0.004883
6127	0.024109	-0.001984
6128	0.005646	-0.046539
6129	0.053711	-0.024567
6130	0.028381	0.032654
6131	0.061493	0.007629
6132	0.056	-0.029602
6133	0.015411	-0.076447
6134	0.014191	-0.005493
6135	0.033569	0.029755
6136	0.013428	0.048981
6137	0.026245	0.041046
6138	0.02655	-0.002441
6139	0.069122	0.016785
6140	-0.006866	0.025024
6141	0.017395	0.006409
6142	0.0177	-0.024109
6143	0.043793	-0.016937
6144	0.024109	0.003052
6145	0.062256	-0.005341
6146	-0.016632	0.064392
6147	0.011749	0.005951
6148	-0.000153	0.005951
6149	0.019989	0.012512
6150	0.032959	0.02243
6151	0.005493	0.035553
6152	-0.023346	-0.002136
6153	-0.014496	0.012665
6154	0.0354	-0.002289
6155	0.03891	0.034332
6156	0.015564	0.039978
6157	0.014648	0.053711
6158	0.003662	0.061493
6159	0.050354	-0.019531
6160	0.01236	0.005341
6161	0.019379	-0.012817
6162	0.025787	0.028381
6163	0.042267	0.023804
6164	0.022583	0.088043
6165	0.001221	-0.032196
6166	0.063477	0.01236
6167	0.055084	0.077209
6168	0.071869	0.016327
6169	0.004425	0.01358
6170	0.029907	0.053558
6171	0.036316	-0.019073
6172	0.017242	0.044708
6173	0.015564	-0.014343
6174	0.039368	0.077362
6175	0.031433	0.018921
6176	0.030823	-0.019073
6177	0.050812	-0.019989
6178	0.013733	0.029602
6179	0.02655	0.007172
6180	0.01236	0.027924
6181	0.003204	0.014038
6182	0.034485	0.048981
6183	-0.0177	0.004883
6184	0.039825	0.061493
6185	0.051422	0.045013
6186	0.01297	-0.044708
6187	0.047607	0.00412
6188	0.041656	-0.004883
6189	0.018158	0.051422
6190	0.006104	0.01709
6191	0.013275	0.06546
6192	-0.000763	0.016174
6193	0.018311	-0.013733
6194	0.022278	0.049896
6195	0.032196	0.061035
6196	-0.020294	0.061035
6197	0.028992	-0.030212
6198	0.005951	-0.004272
6199	0.005341	-0.008392
6200	0.032349	0.037842
6201	0.045624	0.01709
6202	0.057526	0.053253
6203	0.038452	0.017853
6204	0.029755	-0.010071
6205	-0.006561	0.037689
6206	0.012512	0.015564
6207	0.011444	0.028076
6208	0.035706	0.036926
6209	0.013733	0.019379
6210	-0.002594	0.027771
6211	0.060577	0.046234
6212	0.042877	0.099792
6213	0.033417	0.04715
6214	-0.006104	0.084839
6215	0.043793	0.012512
6216	-0.004272	0.081177
6217	-0.010834	0.043945
6218	-0.006561	0.115509
6219	-0.016174	0.055084
6220	-0.006561	0.129242
6221	0.033417	0.183258
6222	0.009613	0.029907
6223	0.051117	-0.047607
6224	0.040894	-0.113068
6225	0.026093	-0.087585
6226	0.051727	-0.099182
6227	-0.002594	-0.039673
6228	0.035858	-0.029144
6229	0.03418	-0.049744
6230	-0.007629	-0.003357
6231	0.025787	0.027771
6232	0.013275	0.030212
6233	0.007172	0.00946
6234	0.023041	-0.030518
6235	0.032654	-0.027771
6236	-0.029144	0.008545
6237	-0.012207	0.045166
6238	0.009308	0.04776
6239	0.04303	0.049133
6240	0.025177	0.081329
6241	-0.018311	0.041351
6242	-0.007019	0.040894
6243	0.018768	0.069275
6244	0.024109	0.011139
6245	0.067902	0.049438
6246	0.025177	0.004272
6247	0.003052	0.100098
6248	-0.005493	0.022888
6249	0.022125	0.03891
6250	0.071259	0.029297
6251	0.037231	0.019379
6252	0.027618	0.041046
6253	-0.02182	0.071716
6254	0.06073	0.023956
6255	0.092621	0.064545
6256	-0.014648	0.010071
6257	0.000153	0.016327
6258	-0.013428	0.062561
6259	0.036316	0.041962
6260	0.031738	0.04303
6261	0.018768	0.037537
6262	0.019836	-0.036621
6263	0.04425	0.034485
6264	0.031738	0.017548
6265	0.00946	0.015564
6266	0.012512	0.046844
6267	0.031433	0.010071
6268	-0.011444	-0.003662
6269	-0.010834	0.044556
6270	-0.029907	0.012207
6271	-0.017853	0.025635
6272	0.040283	-0.031433
6273	0.013123	0.066071
6274	0.006866	0.049133
6275	0.00473	-0.026703
6276	0.045624	-0.02594
6277	0.051117	0.051117
6278	0.049744	0.019379
6279	0.025482	0.021362
6280	-0.021973	0.03479
6281	0.011444	0.007019
6282	0.0383	0.042572
6283	0.080566	0.015106
6284	-0.003967	-0.007172
6285	0.066528	0.030823
6286	0.041656	-0.011444
6287	0.069885	0.006561
6288	0.043182	0.058289
6289	-0.002441	0.065613
6290	-0.04364	0.02533
6291	0.033875	0.119629
6292	0.012054	0.105286
6293	0.012054	0.06958
6294	0.070496	0.0354
6295	0.001526	0.04425
6296	-0.003662	0.02533
6297	0.040131	0.009766
6298	0.049286	0.021057
6299	-0.011902	0.005493
6300	0.009613	-0.031433
6301	0.010834	-0.091553
6302	0.010986	-0.023193
6303	0.042114	0.025024
6304	0.031128	-0.036316
6305	0.010223	0.053406
6306	0.015259	0.111389
6307	0.002441	0.019379
6308	0.011902	-0.015106
6309	0.008698	-0.033264
6310	0.050812	-0.064087
6311	0.004425	-0.015717
6312	0.01358	-0.02182
6313	-0.032349	0.003357
6314	0.074005	0.037384
6315	0.005188	0.033722
6316	0.041809	0.025024
6317	0.034943	0.034027
6318	-0.016785	0.037079
6319	0.000763	0.016632
6320	0.016632	0.090179
6321	0.055084	0.099335
6322	0.046997	0.023346
6323	0.023346	0.036774
6324	0.044098	0.00946
6325	0.042267	-0.022583
6326	0.041656	-0.033417
6327	0.0177	0.005798
6328	0.003052	0.024872
6329	0.037231	0.110016
6330	0.016937	0.110474
6331	0.030518	0.038147
6332	-0.007324	0.088043
6333	0.015259	0.054016
6334	0.004272	0.063629
6335	0.027161	0.018768
6336	0.022583	0.001373
6337	0.030518	0.044403
6338	-0.009918	-0.000305
6339	0.032654	0.020905
6340	0.032196	0.007172
6341	0.016327	-0.007477
6342	0.054321	0.027161
6343	-0.015869	-0.012665
6344	0.064392	0.024872
6345	-0.000916	0.036926
6346	0.02655	0.079651
6347	0.052185	-0.007324
6348	0.016174	-0.062866
6349	0.052795	-0.08728
6350	0.00473	-0.057373
6351	0.028687	-0.05661
6352	0.051422	0.000458
6353	0.022736	-0.092316
6354	0.018005	-0.023193
6355	-0.030975	-0.018158
6356	0.035095	0.027924
6357	0.054016	-0.001373
6358	0.010529	0.004578
6359	0.016022	0.004425
6360	0.032043	-0.023193
6361	0.009766	0.043335
6362	0.038757	0.050507
6363	0.050659	0.055695
6364	0.00412	-0.001221
6365	-0.021057	0.05249
6366	0.010681	0.043488
6367	0.007477	0.016022
6368	0.050812	0.056915
6369	0.020142	-0.006714
6370	0.029602	0.034943
6371	0.053711	0.072174
6372	-0.00885	0.035858
6373	-0.029297	0.02655
6374	0.019684	0.068665
6375	0.00473	0.013123
6376	-0.015106	-0.00061
6377	-0.028687	0.014343
6378	0.072479	0.039063
6379	-0.005035	0.055389
6380	0.019836	-0.034332
6381	0.016327	0.066376
6382	0.031128	0.009308
6383	0.046082	0.091705
6384	0.038147	0.050049
6385	0.04776	0.055847
6386	0.00946	0.020752
6387	0.008087	0.023499
6388	-0.060577	0.043793
6389	0.028381	0.034027
6390	0.039063	0.017395
6391	0.048065	0.054932
6392	0.033264	-0.012512
6393	-0.031433	0.048828
6394	0.026398	-0.039673
6395	0.025787	-0.094604
6396	0.023346	-0.117493
6397	0.029907	-0.031433
6398	0.029602	0.054016
6399	0.011292	0.229034
6400	-0.009766	0.179749
6401	0.030975	0.203247
6402	0.006866	0.230103
6403	0.00473	0.210876
6404	0.014648	0.213013
6405	-0.003815	0.147247
6406	0.002747	0.207825
6407	0.045013	0.0383
6408	0.032043	0.053864
6409	-0.006714	-0.012817
6410	0.006409	0.039673
6411	0.023193	0.021057
6412	0.026245	0.03067
6413	0.003662	-0.059814
6414	-0.00412	-0.085754
6415	-0.001984	-0.040741
6416	0.052338	0.036316
6417	-0.037994	0.026398
6418	0.007019	0.040436
6419	0.018616	-0.009308
6420	0.019684	-0.001068
6421	0.031586	-0.057068
6422	0.001984	-0.098724
6423	-0.026855	-0.033264
6424	0.010681	0.035858
6425	0.048218	-0.045776
6426	0.048676	-0.074768
6427	0.064087	-0.031128
6428	0.022888	-0.033112
6429	0.006714	-0.000305
6430	0.039673	0.013123
6431	0.00351	0.043793
6432	0.040436	-0.005188
6433	0.015411	0.02121
6434	0.005188	-0.020905
6435	0.039368	0.062256
6436	0.048523	0.005646
6437	0.043945	0.056763
6438	0.01236	-0.065765
6439	0.041351	-0.020142
6440	0.02182	-0.016479
6441	-0.028229	0.032043
6442	0.009308	0.01236
6443	0.016632	0.032501
6444	0.00473	0.01236
6445	0.044708	0.04837
6446	-0.011749	0.027008
6447	-0.007324	0.022736
6448	0.037079	0.019836
6449	0.019684	0.02121
6450	0.047913	0.058899
6451	0.011139	0.054626
6452	-0.009613	0.103912
6453	0.047302	0.081635
6454	-0.01236	-0.004578
6455	0.049286	0.01358
6456	0.020599	0.020142
6457	0.062714	0.052185
6458	-0.019684	0.117493
6459	0.023193	0.12146
6460	-0.014038	0.063324
6461	0.056458	0.080566
6462	0.046997	0.089417
6463	0.044098	0.020294
6464	0.043335	-0.146637
6465	0.020905	0.015564
6466	0.00885	-0.079651
6467	0.023041	-0.071411
6468	0.003204	-0.086365
6469	0.023956	-0.022583
6470	-0.001831	-0.042725
6471	0.006714	0.03952
6472	-0.013885	0.082703
6473	0.06073	0.074005
6474	0.027008	0.033112
6475	0.076294	-0.048981
6476	-0.050812	-0.128479
6477	-0.014954	-0.065155
6478	0.002594	-0.039825
6479	0.058899	-0.077209
6480	0.01358	-0.08255
6481	-0.000763	0.012665
6482	-0.005493	0.010681
6483	-0.010529	-0.020294
6484	0.040131	0.077057
6485	0.060272	0.072174
6486	0.055389	0.073242
6487	-0.013428	0.076904
6488	0.036621	0.072479
6489	0.029449	0.054626
6490	0.069275	0.09613
6491	0.016327	0.080109
6492	-0.012207	0.04425
6493	-0.024872	0.053558
6494	0.016022	0.024414
6495	0.038757	0.065765
6496	0.031281	-0.039368
6497	0.043335	-0.02182
6498	0.013428	-0.023346
6499	0.001678	0.067444
6500	0.02594	0.060883
6501	0.040283	0.039978
6502	0.045624	0.097809
6503	0.082855	0.060272
6504	0.000916	0.058746
6505	0.066986	0.049591
6506	0.095978	0.040588
6507	0.052948	-0.037842
6508	0.005188	-0.069427
6509	0.003815	-0.006561
6510	0.034943	-0.03891
6511	-0.009613	-0.014343
6512	0.045013	-0.028992
6513	-0.007935	-0.000153
6514	-0.003815	-0.003967
6515	-0.018158	-0.002594
6516	0.047455	0.05127
6517	0.040436	0.069885
6518	0.072174	0.089111
6519	0.042419	0.086365
6520	0.082092	0.089569
6521	0.043182	0.071869
6522	0.011139	0.059662
6523	0.014343	-0.072174
6524	0.024872	-0.01297
6525	-0.022736	-0.000763
6526	-0.006714	-0.015869
6527	-0.007324	-0.048218
6528	0.031433	-0.023651
6529	-0.011749	0.005341
6530	0.022125	0.008087
6531	-0.007172	0.02533
6532	0.035248	0.012207
6533	0.011292	0.000763
6534	0.041504	-0.023956
6535	-0.067596	-0.033875
6536	0.037689	0.049438
6537	0.025177	0.033722
6538	-0.000916	-0.08194
6539	0.04837	0.005035
6540	0.028839	0.055695
6541	0.029602	0.12558
6542	-0.00946	0.231628
6543	-0.030518	0.200043
6544	0.029907	0.068054
6545	-0.000458	0.043335
6546	0.026093	-0.015564
6547	0.014343	-0.088043
6548	0.068665	-0.088806
6549	-0.046387	-0.087738
6550	0.009155	0.018463
6551	0.007172	0.052643
6552	0.005035	0.072784
6553	0.023956	0.049286
6554	0.010223	-0.027466
6555	0.022736	-0.043793
6556	0.026245	0.017548
6557	0.085144	0.117188
6558	0.043945	0.055847
6559	0.013733	0.042572
6560	-0.004883	0.028687
6561	-0.012817	0.048676
6562	0.045471	0.062866
6563	0.100403	0.064697
6564	-0.015717	0.001831
6565	0.009155	-0.001984
6566	0.000916	0.020752
6567	0.006714	-0.013733
6568	0.033417	0.084076
6569	0.0177	0.029297
6570	0.023956	0.040588
6571	0.028381	0.003967
6572	0.039825	0.039215
6573	0.026245	0.052338
6574	0.059967	0.006256
6575	0.007019	0.001678
6576	-0.023041	0.060425
6577	-0.029449	0.06012
6578	0.000305	0.014648
6579	0.078735	0.094757
6580	0.037231	0.017548
6581	0.049591	0.110931
6582	-0.005341	0.024719
6583	0.035248	0.074768
6584	0.026093	0.021057
6585	0.017853	0.040894
6586	0.037537	0.000458
6587	-0.019531	-0.003357
6588	0.001221	-0.028076
6589	0.041199	0.055847
6590	0.044403	0.070801
6591	0.054779	0.101318
6592	0.016785	0.074005
6593	0.037537	0.041809
6594	0.033112	-0.048523
6595	0.053864	-0.004425
6596	0.02533	-0.023804
6597	0.012817	-0.095978
6598	0.010376	-0.014191
6599	0.040588	0.005646
6600	0.016785	0.037842
6601	0.032196	0.036469
6602	0.01297	0.100403
6603	0.005341	0.084076
6604	0.013733	0.05661
6605	0.038452	0.079498
6606	0.055084	0.056152
6607	0.004883	0.080109
6608	0.043488	0.12619
6609	0.013733	0.078735
6610	0.053101	-0.019226
6611	0.003967	-0.009155
6612	0.017853	0.070801
6613	-0.000153	0.092163
6614	0.016174	0.09079
6615	0.019989	-0.018921
6616	0.012512	-0.050049
6617	-0.015717	0.010071
6618	0.016327	-0.001221
6619	0.025024	-0.020142
6620	0.03006	0.002747
6621	0.036621	-0.018616
6622	-0.025787	0.022888
6623	0.040588	0.006866
6624	0.020905	0.050964
6625	0.0383	0.053253
6626	0.070801	-0.050354
6627	0.023956	-0.003052
6628	0.000153	0.064545
6629	0.027466	0.09552
6630	0.022583	-0.058441
6631	0.067291	-0.102234
6632	0.016937	-0.163422
6633	0.028534	-0.131836
6634	0.049438	-0.113831
6635	0.075226	-0.059357
6636	0.020294	-0.013885
6637	0.024109	0.022583
6638	0.000916	0.063629
6639	0.015717	0.039673
6640	0.076447	-0.007935
6641	0.024719	0.094452
6642	0.031128	0.020294
6643	0.027618	-0.028992
6644	0.028534	-0.067139
6645	0.08728	-0.082245
6646	0.002289	0.003662
6647	-0.003815	0.036316
6648	0.009766	0.118256
6649	0.044861	0.232849
6650	0.01236	0.178223
6651	0.00885	0.12146
6652	0.007629	0.036316
6653	0.018311	0.087585
6654	0.00824	0.073395
6655	0.020142	0.035553
6656	-0.007324	0.160675
6657	0.013275	0.117798
6658	0.010986	0.130005
6659	0.056305	0.065155
6660	0.04715	0.037994
6661	0.049591	0.001221
6662	-0.006104	0.043793
6663	0.010681	0.070343
6664	0.033569	0.050354
6665	0.006104	0.03479
6666	-0.011139	-0.012512
6667	0.040283	0.013275
6668	-0.002136	-0.04303
6669	0.046234	-0.050507
6670	0.049133	-0.025024
6671	0.045929	-0.065002
6672	0.032806	-0.041199
6673	0.075989	-0.007019
6674	0.032349	0.033417
6675	0.053711	0.060577
6676	0.054626	0.006866
6677	0.033875	0.010376
6678	0.009308	-0.037537
6679	0.023804	0.035858
6680	0.013428	0.03952
6681	0.002441	0.079803
6682	-0.031891	0.054779
6683	-0.00824	0.04425
6684	0.002899	-0.006409
6685	0.048981	0.014343
6686	0.004578	0.065765
6687	0.040588	0.044708
6688	0.013123	0.055084
6689	-0.007019	0.015259
6690	0.058899	0.02243
6691	0.007477	0.042572
6692	0.03479	0.017548
6693	0.045013	0.060272
6694	0.028229	0.011444
6695	-0.02243	-0.035095
6696	0.050812	-0.069275
6697	-0.003967	-0.076599
6698	0.060883	-0.012054
6699	0.064392	0.041656
6700	0.016785	0.094147
6701	0.005951	0.113373
6702	0.019989	0.121613
6703	0.041046	0.003204
6704	0.038757	-0.112915
6705	0.013428	-0.149841
6706	0.029907	-0.119171
6707	0.015564	-0.139465
6708	-0.024567	0.022125
6709	0.015564	0.188599
6710	-0.000153	0.242462
6711	0.053253	0.330811
6712	-0.010529	0.238037
6713	0.002136	0.213165
6714	0.01358	0.266266
6715	0.016022	0.123138
6716	0.007782	0.013885
6717	0.005188	-0.001678
6718	-0.020142	0.017395
6719	-0.005646	0.06073
6720	0.005798	0.077362
6721	0.007172	-0.037537
6722	0.039673	-0.272675
6723	0.020142	-0.292664
6724	0.063477	-0.299377
6725	-0.046997	-0.411835
6726	-0.05188	-0.361328
6727	0.005493	-0.061798
6728	0.027008	0.344849
6729	0.037231	0.512085
6730	0.004578	0.375061
6731	-0.020142	0.143127
6732	0.032043	0.129242
6733	0.04425	-0.008545
6734	0.052948	-0.134888
6735	0.054932	0.029907
6736	0.043182	0.096588
6737	0.006104	0.024109
6738	-0.005646	0.003204
6739	-0.000153	0.04776
6740	-0.075226	0.077057
6741	0.009003	0.061188
6742	0.041351	0.092468
6743	-0.001526	0.09552
6744	0.03891	0.072479
6745	0.001526	0.077362
6746	0.05188	0.071869
6747	0.064545	0.170746
6748	0.019684	0.091553
6749	0.056458	0.015259
6750	0.084229	-0.061188
6751	0.069733	-0.175934
6752	0.018768	-0.177307
6753	-0.001068	-0.119781
6754	0.052032	-0.0177
6755	0.018616	-0.011139
6756	0.037994	-0.019226
6757	0.048218	-0.037079
6758	0.014343	-0.045776
6759	0.039063	0.024109
6760	-0.007172	0.045166
6761	-0.000458	-0.037537
6762	-0.005798	-0.011444
6763	-0.014496	-0.009003
6764	-0.011139	0.079956
6765	0.000916	0.130768
6766	0.025024	0.06485
6767	0.032959	-0.086975
6768	0.031891	-0.050201
6769	0.010071	0.020142
6770	0.036316	-0.028687
6771	0.023804	-0.065613
6772	0.056763	-0.070343
6773	0.007172	-0.157013
6774	0.06897	-0.028076
6775	-0.01709	-0.054932
6776	0.02655	0.011597
6777	-0.002441	0.050201
6778	-0.028839	0.107269
6779	0.043793	0.132904
6780	-0.005035	0.181427
6781	0.020599	0.179291
6782	-0.023651	0.147552
6783	-0.079193	0.222168
6784	-0.002594	0.252991
6785	-0.028534	0.149841
6786	0.011902	-0.033417
6787	0.030518	-0.038757
6788	0.023956	0.016022
6789	0.00351	-0.040894
6790	-0.010529	-0.058594
6791	-0.010376	-0.110626
6792	0.021667	-0.073853
6793	0.078278	-0.070648
6794	0.131073	0.001678
6795	0.056152	-0.02594
6796	0.051727	-0.031586
6797	0.062866	0.012207
6798	0.045319	0.030518
6799	-0.044403	0.050659
6800	0.056	0.018158
6801	0.06012	0.003815
6802	0.090027	-0.02533
6803	0.036316	0.018463
6804	0.027924	0.016632
6805	0.107269	0.02243
6806	0.135193	0.072174
6807	0.216217	0.074921
6808	0.215302	0.092316
6809	0.23056	0.052643
6810	0.140228	-0.007935
6811	-0.061188	-0.013885
6812	-0.173492	0.090942
6813	-0.244141	0.137482
6814	-0.140228	0.048981
6815	-0.125122	-0.028687
6816	-0.052338	-0.069733
6817	-0.063782	-0.017548
6818	-0.019836	0.066376
6819	-0.056458	0.054016
6820	0.000458	0.001984
6821	0.007172	0.001984
6822	0.002289	-0.010223
6823	-0.017395	0.072479
6824	-0.033722	0.143127
6825	-0.042725	0.044708
6826	0.041046	0.101471
6827	0.007019	0.178528
6828	-0.006409	0.168762
6829	-0.012207	0.148773
6830	0.055389	0.121307
6831	-0.016785	0.041504
6832	0.038605	-0.133972
6833	0.003357	-0.176086
6834	0.009155	-0.057373
6835	0.016479	-0.117188
6836	0.001373	0.04837
6837	0.030212	0.193481
6838	0.033722	0.391541
6839	0.036469	0.24292
6840	0.046234	0.094147
6841	0.034485	-0.02243
6842	0.041504	-0.039368
6843	0.016785	-0.082245
6844	0.037537	-0.122681
6845	0.038147	-0.083923
6846	0.05188	0.210724
6847	0.012207	0.250854
6848	-0.010529	0.270844
6849	0.058746	0.168762
6850	0.010223	0.070038
6851	0.01709	-0.005035
6852	0.007629	0.019226
6853	0.005493	-0.07309
6854	0.046082	-0.129089
6855	0.032806	-0.155487
6856	0.054321	-0.177307
6857	0.016937	-0.031738
6858	0.016785	-0.027161
6859	0.027771	0.021667
6860	0.050354	0.108032
6861	0.048981	0.048065
6862	0.03891	0.092163
6863	0.087128	-0.01297
6864	0.034332	0.015106
6865	0.062714	0.008545
6866	0.001373	-0.062866
6867	-0.029755	-0.07019
6868	0.033417	-0.052948
6869	0.054016	-0.089111
6870	0.07019	-0.059357
6871	0.058899	-0.038147
6872	0.00351	0.064392
6873	-0.026245	0.194397
6874	0.041046	0.202789
6875	0.057068	0.203094
6876	-0.03418	0.029907
6877	-0.01709	0.020447
6878	0.014343	0.098724
6879	0.066986	0.080414
6880	0.078888	0.096283
6881	0.069275	0.11261
6882	0.052643	0.070801
6883	0.067139	-0.036316
6884	0.007935	-0.114746
6885	0.00061	-0.112915
6886	0.020447	-0.085602
6887	0.028381	-0.036316
6888	-0.010223	0.08255
6889	-0.009613	0.143127
6890	0.013275	0.171051
6891	-0.061951	0.106659
6892	-0.032959	0.003357
6893	-0.006256	0.028687
6894	0.029297	-0.044098
6895	0.011749	-0.005493
6896	-0.039215	-0.16037
6897	-0.005035	-0.209656
6898	0.037842	-0.069885
6899	0.062561	-0.010376
6900	0.068054	-0.00412
6901	0.056915	0.04364
6902	-0.035248	0.066071
6903	0.033417	0.009003
6904	0.002441	0.025635
6905	0.071869	0.032196
6906	0.002289	-0.013275
6907	0.018616	-0.079651
6908	-0.026855	-0.106049
6909	-0.043945	-0.019989
6910	-0.067444	0.055847
6911	-0.030823	0.065155
6912	-0.018463	0.052948
6913	-0.023346	0.056458
6914	-0.028534	0.118561
6915	-0.010834	0.10376
6916	0.190582	0.070953
6917	0.282288	0.059814
6918	0.217285	0.006561
6919	0.121002	0.074921
6920	0.073547	0.062561
6921	0.045624	-0.023956
6922	0.013275	-0.138702
6923	0.082092	-0.088348
6924	0.188904	-0.112457
6925	0.272522	0.001221
6926	0.305023	0.272369
6927	0.245361	0.299072
6928	0.206604	0.282135
6929	0.096741	0.193481
6930	-0.132599	0.118408
6931	-0.303802	-0.012512
6932	-0.309448	-0.005188
6933	-0.245819	0.005035
6934	-0.154724	-0.054932
6935	-0.154114	0.021362
6936	-0.071259	-0.006104
6937	-0.021515	-0.040436
6938	-0.024414	0.005341
6939	-0.000916	0.15274
6940	-0.024719	0.171814
6941	-0.006866	0.121765
6942	-0.006714	0.105438
6943	0.024261	-0.030212
6944	-0.053864	-0.079193
6945	0.031586	-0.144806
6946	0.028381	-0.203247
6947	0.021057	-0.189056
6948	0.010986	-0.162506
6949	-0.01358	-0.130463
6950	0.024261	-0.020752
6951	0.037537	0.016479
6952	0.089417	-0.010529
6953	0.042114	0.002289
6954	0.068054	0.110931
6955	0.092926	0.189209
6956	0.075073	0.160675
6957	0.018768	0.120392
6958	0.00885	0.022736
6959	-0.013885	-0.11673
6960	0.02594	-0.099335
6961	-0.037231	-0.144653
6962	0.056305	-0.175934
6963	0.031586	-0.156708
6964	0.047455	-0.047455
6965	0.049438	0.128937
6966	0.016022	0.381927
6967	-0.018921	0.413513
6968	-0.001068	0.21698
6969	-0.013885	0.025024
6970	0.032349	0.02121
6971	0.055695	0.054169
6972	0.042419	-0.004578
6973	0.012817	-0.054321
6974	0.101776	-0.059357
6975	0.180206	-0.053711
6976	0.090485	-0.095825
6977	0.066681	-0.063171
6978	-0.026855	0.00824
6979	0.03067	0.015564
6980	0.019073	0.015259
6981	0.023956	0.034485
6982	-0.004272	0.157471
6983	0.010834	0.156555
6984	0.016785	0.21698
6985	0.074615	0.079803
6986	0.099945	0.050507
6987	0.062408	0.019684
6988	0.10025	0.028534
6989	0.038605	0.135803
6990	0.050507	0.065155
6991	0.010986	0.001068
6992	0.019073	0.005188
6993	0.086975	0.03067
6994	0.077209	-0.065918
6995	0.052795	-0.127869
6996	0.08667	-0.237732
6997	0.045624	-0.286713
6998	-0.024414	-0.064392
6999	0.001373	0.088501
7000	0.041046	0.168457
7001	0.067596	0.259247
7002	0.075836	0.144196
7003	0.023041	0.084229
7004	-0.109253	0.167694
7005	-0.045319	0.227051
7006	-0.128326	0.251312
7007	-0.072632	0.272675
7008	-0.063629	0.227509
7009	-0.049133	0.061951
7010	-0.066528	-0.06073
7011	0.054626	-0.131226
7012	0.168152	-0.030212
7013	0.119476	0.007629
7014	0.074615	-0.002441
7015	0.097656	-0.066833
7016	0.17746	-0.062561
7017	0.171814	-0.059967
7018	0.185242	-0.005493
7019	0.211639	-0.00412
7020	0.088501	0.039825
7021	0.141296	0.048676
7022	0.128326	0.037689
7023	-0.438995	0.087585
7024	-0.362854	0.146942
7025	-0.305481	0.130615
7026	-0.138245	0.125732
7027	0.02243	0.075531
7028	0.061035	-0.020905
7029	0.018768	-0.003357
7030	0.005646	-0.040588
7031	0.020905	0.015717
7032	0.027618	-0.071869
7033	0.056305	-0.170288
7034	-0.028381	-0.166473
7035	0.058746	-0.034637
7036	0.063934	0.013428
7037	0.076599	-0.069275
7038	0.042114	-0.099792
7039	0.044708	-0.02594
7040	-0.009308	-0.00412
7041	0.027313	0.013123
7042	0.052032	0.017548
7043	0.020905	0.070648
7044	0.028076	0.032959
7045	0.088806	0.126343
7046	0.048065	0.138397
7047	0.028229	0.204468
7048	-0.005951	0.223846
7049	-0.01297	0.198212
7050	0.109558	0.144653
7051	0.048981	-0.05661
7052	-0.024109	-0.092621
7053	-0.03479	-0.128021
7054	0.016632	-0.125732
7055	0.007629	-0.189667
7056	0.059967	-0.147247
7057	0.025787	-0.033569
7058	-0.024109	0.063477
7059	0.024261	0.056763
7060	0.029144	0.061951
7061	-0.003815	0.091553
7062	-0.018616	0.074768
7063	-0.016785	0.08194
7064	-0.071106	0.077972
7065	-0.272217	0.113678
7066	-0.316925	0.112915
7067	-0.283508	0.125427
7068	-0.184021	0.036011
7069	-0.007019	-0.076599
7070	0.108643	-0.150909
7071	0.241394	-0.088196
7072	0.351715	-0.006409
7073	0.349121	-0.001984
7074	0.209351	-0.015717
7075	0.084991	-0.005035
7076	0.02533	0.107574
7077	0.075836	-0.007782
7078	0.179596	-0.047302
7079	0.22934	-0.057526
7080	0.191803	-0.068207
7081	0.234985	-0.018921
7082	0.279236	0.128632
7083	0.262604	0.079041
7084	0.0383	0.041656
7085	-0.159454	0.107117
7086	-0.167236	0.07782
7087	-0.223846	0.06073
7088	-0.225067	-0.004425
7089	-0.17746	-0.081635
7090	-0.175781	-0.027008
7091	-0.187683	-0.140533
7092	-0.185547	-0.245361
7093	-0.05249	-0.322571
7094	-0.131378	-0.361633
7095	-0.114441	-0.10376
7096	0.00885	0.183411
7097	0.057983	0.418854
7098	0.035248	0.424957
7099	-0.065918	0.368958
7100	-0.06485	0.248413
7101	0.110779	0.171967
7102	0.272675	0.155182
7103	0.313721	0.055542
7104	0.200806	0.071106
7105	0.112152	0.077057
7106	0.075531	0.067902
7107	0.018005	0.058594
7108	0.053101	0.069733
7109	-0.038757	0.012817
7110	-0.024872	-0.007477
7111	-0.010071	0.068054
7112	0.0177	0.036163
7113	-0.002899	0.077667
7114	0.019684	0.089722
7115	-0.01709	0.010529
7116	-0.004883	0.045776
7117	0.014496	0.026398
7118	0.032043	0.005188
7119	0.006104	0.010376
7120	0.041046	0.028992
7121	0.0177	-0.019531
7122	0.043335	-0.053558
7123	0.015411	-0.021667
7124	0.063629	0.029755
7125	0.005646	-0.063782
7126	-0.005798	-0.062714
7127	-0.02243	-0.045319
7128	-0.013275	0.017242
7129	0.027924	0.034485
7130	0.001221	0.036316
7131	-0.014648	-0.006561
7132	0.052338	-0.02594
7133	0.092468	0.009766
7134	0.098877	0.022888
7135	0.082703	-0.027771
7136	0.098572	0.049438
7137	-0.050659	0.067139
7138	-0.069122	0.063934
7139	-0.071716	0.013123
7140	-0.090637	0.042572
7141	-0.066833	0.043182
7142	-0.046234	0.01297
7143	0.016479	0.012665
7144	0.015411	0.02594
7145	0.037689	0.029602
7146	0.025787	0.009003
7147	0.037079	0.049591
7148	0.031738	0.005646
7149	0.000305	0.007477
7150	0.015869	0.02533
7151	0.020905	-0.011902
7152	0.054169	0.068665
7153	0.067291	0.042877
7154	0.028229	0.03479
7155	-0.001526	0.083771
7156	0.005646	0.029755
7157	-0.007324	0.096283
7158	0.036926	0.062561
7159	0.062256	0.099945
7160	0.024872	0.090179
7161	0.053864	0.062408
7162	0.01358	0.005035
7163	0.041351	0.014038
7164	-0.031433	0.00412
7165	0.015564	-0.040741
7166	0.074768	-0.085449
7167	-0.005188	-0.104065
7168	0.00061	-0.032501
7169	-0.012817	0.014496
7170	-0.015411	0.108948
7171	-0.00885	0.259094
7172	-0.027161	0.241547
7173	-0.007019	0.16983
7174	-0.016632	0.062714
7175	-0.018158	-0.231323
7176	-0.009308	-0.481567
7177	-0.019836	-0.614014
7178	0.036163	-0.245056
7179	0.045319	0.444031
7180	0.102844	0.475464
7181	0.129089	0.200195
7182	0.120697	0.166168
7183	0.13382	0.139465
7184	0.128784	0.16037
7185	0.06958	-0.008698
7186	0.062408	-0.057983
7187	0.031891	-0.196075
7188	0.02533	-0.230865
7189	0.022583	-0.179596
7190	0.072479	-0.05661
7191	0.006714	0.090027
7192	0.057526	0.196381
7193	0.095215	0.214844
7194	0.045166	0.18219
7195	-0.021667	0.098114
7196	-0.107574	0.093384
7197	-0.0383	0.193481
7198	-0.041351	0.19043
7199	-0.005341	0.126038
7200	0.02243	0.177765
7201	0.007629	0.159149
7202	0.001526	0.158691
7203	0.036011	0.130463
7204	0.067902	-0.044708
7205	-0.025177	-0.10849
7206	0.075531	-0.020752
7207	0.082703	0.007629
7208	0.076294	-0.148621
7209	0.068817	-0.068054
7210	-0.018005	-0.110779
7211	0.100403	-0.13504
7212	0.010681	-0.070648
7213	0.040741	-0.062561
7214	0.02533	-0.04715
7215	-0.03952	-0.052948
7216	0.006256	-0.013733
7217	0.007172	-0.074158
7218	0.047607	-0.189667
7219	0.03067	-0.202332
7220	0.014648	-0.218048
7221	0.038605	-0.171204
7222	0.004883	-0.167694
7223	0.018005	-0.208282
7224	-0.02655	-0.159149
7225	-0.050964	-0.128021
7226	0.046539	0.027618
7227	0.076141	0.041656
7228	0.066681	0.078735
7229	0.016632	0.246887
7230	0.035553	0.335846
7231	-0.043793	0.216217
7232	0.03006	0.116272
7233	-0.03479	0.037384
7234	-0.032196	0.024414
7235	0.032043	-0.023804
7236	-0.023651	-0.028534
7237	0.008698	0.113525
7238	0.001221	0.131989
7239	0.013733	0.097504
7240	0.02594	0.138245
7241	0.040436	0.180664
7242	0.067291	0.17868
7243	0.058899	0.261993
7244	0.066223	0.224304
7245	0.052795	0.145416
7246	0.024719	0.158386
7247	0.016174	0.15564
7248	-0.002289	0.169983
7249	0.059052	0.100555
7250	0.039825	0.03891
7251	0.014648	-0.105438
7252	0.02243	-0.083618
7253	0.048218	-0.041962
7254	0.029144	-0.024261
7255	0.062561	-0.000458
7256	0.059814	0.001678
7257	0.027008	0.044556
7258	0.037231	0.08728
7259	0.050964	-0.020905
7260	0.014954	-0.033417
7261	0.068359	-0.065155
7262	0.010681	-0.037537
7263	0.023346	0.09201
7264	0.073395	0.151367
7265	0.064697	0.120087
7266	0.059204	0.063171
7267	0.01358	0.133667
7268	0.027313	0.120239
7269	0.101929	0.015106
7270	0.11322	-0.007477
7271	0.02655	-0.001221
7272	0.001678	-0.013733
7273	-0.023346	0.164948
7274	-0.051422	0.018311
7275	0.052032	-0.054779
7276	-0.02243	-0.132294
7277	-0.027771	-0.081787
7278	0.01358	-0.082397
7279	-0.016479	0.01709
7280	0.038147	0.022278
7281	0.012817	0.052795
7282	-0.01358	0.065002
7283	-0.005646	0.086517
7284	0.028992	0.109406
7285	0.080719	0.104523
7286	0.048828	0.059357
7287	0.071564	-0.057068
7288	0.078888	-0.154877
7289	0.059052	-0.276184
7290	0.014191	-0.235291
7291	-0.044098	-0.107269
7292	0.035095	0.102844
7293	-0.006714	0.195618
7294	-0.040894	0.244141
7295	-0.044556	0.100861
7296	0.021515	0.079498
7297	0.027771	0.146179
7298	-0.035095	0.119324
7299	0.0354	0.108795
7300	0.018005	0.09613
7301	-0.009613	0.237427
7302	-0.011597	0.25177
7303	0.061493	0.217743
7304	0.044098	0.099792
7305	0.007782	0.078583
7306	0.051117	0.086212
7307	-0.002136	0.071411
7308	0.070648	-0.051422
7309	0.049133	-0.150757
7310	0.053864	-0.257874
7311	0.026855	-0.148926
7312	0.014954	-0.077972
7313	0.086823	-0.044556
7314	-0.036926	-0.040894
7315	0.012665	-0.019073
7316	-0.014801	0.020599
7317	-0.017242	-0.036316
7318	0.006256	0.079803
7319	-0.01709	0.067749
7320	-0.053711	-0.096741
7321	-0.045471	-0.046844
7322	0.023804	-0.154877
7323	0.054932	-0.18219
7324	0.011597	-0.207367
7325	-0.036163	-0.114288
7326	-0.062408	-0.008392
7327	-0.002136	0.119781
7328	0.02182	0.111237
7329	0.014496	0.097046
7330	-0.013123	0.107574
7331	0.032349	0.105743
7332	0.063934	0.075836
7333	0.060577	0.070648
7334	0.064087	0.079803
7335	0.002594	0.117035
7336	0.040741	0.09079
7337	-0.025482	0.050507
7338	-0.05661	0.045166
7339	0.020142	0.077515
7340	0.024261	0.07782
7341	0.150909	0.040741
7342	0.170746	-0.002899
7343	0.033112	-0.005951
7344	0.052795	0.035095
7345	0.033264	0.041351
7346	0.037994	0.059662
7347	0.067902	0.06134
7348	0.063477	0.038452
7349	0.042572	0.029144
7350	-0.033417	0.030518
7351	0.069122	0.031586
7352	0.079498	0.05188
7353	0.087891	0.019379
7354	0.006866	0.018616
7355	-0.037079	0.00885
7356	-0.04715	0.017395
7357	0.010834	-0.01297
7358	0.020142	0.067596
7359	0.027008	0.074615
7360	-0.003204	0.002594
7361	-0.049438	0.063477
7362	0.0383	0.058289
7363	-0.010223	-0.024414
7364	0.008392	0.002136
7365	-0.05188	0.07019
7366	0.025482	0.037689
7367	0.007324	-0.016785
7368	0.00885	-0.088806
7369	0.023346	-0.073547
7370	0.010681	0.03067
7371	0.010376	-0.003967
7372	0.078278	0.017242
7373	0.026093	-0.010376
7374	0.007172	0.09964
7375	0.019226	0.139618
7376	0.026855	0.084229
7377	0.028839	0.070648
7378	0.055542	0.042114
7379	0.016479	0.070038
7380	-0.020294	0.056458
7381	0.01297	0.070648
7382	0.024414	0.042114
7383	0.036774	0.089722
7384	-0.012665	0.059662
7385	0.0354	0.017548
7386	0.024109	-0.005493
7387	0.061646	0.001831
7388	0.078735	-0.040131
7389	0.061951	-0.020752
7390	0.031433	-0.005035
7391	0.028687	-0.002441
7392	-0.009003	-0.016327
7393	-0.052185	0.049591
7394	0.059052	0.121613
7395	0.074005	0.033417
7396	0.04837	0.040894
7397	0.023193	0.075531
7398	0.005035	0.016937
7399	0.071259	0.040436
7400	0.062714	0.052795
7401	0.054321	0.117798
7402	-0.032959	0.105743
7403	0.037994	0.141754
7404	0.01709	0.141602
7405	0.012512	0.018768
7406	0.177765	-0.031128
7407	0.440369	-0.055695
7408	0.413055	-0.005646
7409	0.238495	-0.008545
7410	0.181427	-0.107727
7411	0.125275	-0.147858
7412	-0.133667	-0.163269
7413	-0.344086	-0.096741
7414	-0.471191	-0.072174
7415	-0.361786	-0.010681
7416	-0.299988	0.002899
7417	-0.243225	0.016022
7418	-0.137634	0.115967
7419	-0.092621	0.102844
7420	-0.087585	0.116882
7421	-0.063782	0.007172
7422	-0.026855	-0.046692
7423	-0.001678	-0.009003
7424	-0.035553	-0.082245
7425	-0.0177	-0.070648
7426	-0.062103	-0.064392
7427	-0.025787	0.029144
7428	0.034332	0.053101
7429	0.072327	0.066376
7430	0.128632	0.036011
7431	0.096741	0.003662
7432	0.115967	0.065765
7433	0.112457	0.098877
7434	0.050812	0.097656
7435	0.072937	0.055237
7436	0.065613	0.032349
7437	0.054169	0.045929
7438	0.099945	0.014038
7439	0.022583	0.054169
7440	-0.001068	0.034027
7441	0.024567	-0.013123
7442	-0.016937	0.008392
7443	-0.028381	0.031586
7444	0.022278	0.025177
7445	0.071411	0.005035
7446	0.176239	0.089569
7447	0.132446	0.063477
7448	0.168304	0.081482
7449	0.13504	-0.011597
7450	0.062256	0.001678
7451	0.036621	0.029449
7452	0.018768	0.056458
7453	0.055084	0.057068
7454	0.068207	0.031586
7455	0.036621	0.001678
7456	-0.041046	0.041809
7457	-0.005646	0.079041
7458	0.014191	0.0737
7459	0.035706	0.041046
7460	-0.073242	0.022888
7461	-0.021667	0.022888
7462	-0.039368	0.087433
7463	0.001373	0.014343
7464	0.094604	-0.014801
7465	0.04715	0.032806
7466	0.039825	0.019226
7467	0.063934	0.033112
7468	0.090027	-0.009766
7469	0.132141	-0.005951
7470	0.128784	0.000763
7471	0.084076	0.039215
7472	0.066071	0.054626
7473	0.016785	-0.024872
7474	-0.003662	-0.055847
7475	-0.08316	0.105133
7476	0.003815	0.183868
7477	0.047302	0.188751
7478	0.022888	0.055237
7479	-0.049744	0.033569
7480	-0.06958	0.026093
7481	-0.04425	0.02182
7482	-0.066071	0.02121
7483	-0.114899	-0.015411
7484	-0.093689	0.009155
7485	0.036469	0.02121
7486	0.053711	0.061798
7487	0.033722	-0.084229
7488	0.100403	-0.164032
7489	0.093689	-0.123444
7490	0.02594	-0.086823
7491	0.049286	0.046539
7492	0.003815	0.083923
7493	-0.026093	0.023041
7494	-0.055389	0.061646
7495	0.024567	0.023499
7496	-0.030518	0.005798
7497	0.055237	-0.002594
7498	0.064087	0.060883
7499	-0.002747	0.080872
7500	-0.001373	0.024414
7501	-0.011292	0.00885
7502	0.023499	0.003204
7503	0.003815	0.018463
7504	-0.011597	0.030823
7505	-0.079041	0.013885
7506	-0.016174	0.054321
7507	-0.008087	0.072174
7508	0.02182	0.067444
7509	0.02655	0.026245
7510	0.084229	-0.00885
7511	0.046844	0.003967
7512	0.076294	0.023499
7513	0.046692	0.032501
7514	0.04715	-0.00351
7515	-0.024109	-0.012054
7516	0.008087	0.065308
7517	0.06958	0.033417
7518	-0.002441	0.034943
7519	0.052795	0.005646
7520	-0.008392	0.035553
7521	-0.021515	0.066986
7522	-0.006256	0.018768
7523	-0.018768	0.043793
7524	-0.022888	-0.048218
7525	0.048065	-0.114136
7526	0.023499	-0.196533
7527	0.016937	-0.210266
7528	0.024414	-0.210419
7529	0.045013	-0.213623
7530	-0.01236	-0.179596
7531	0.075989	-0.161133
7532	0.034332	-0.189667
7533	0.047302	-0.173492
7534	-0.036163	0.169525
7535	-0.0177	0.150452
7536	0.222626	0.110626
7537	0.529785	0.144958
7538	0.559082	0.068817
7539	0.410919	0.112762
7540	0.259857	0.103607
7541	0.100861	0.061188
7542	-0.152588	0.110779
7543	-0.360107	0.106506
7544	-0.484314	0.075073
7545	-0.372009	0.058594
7546	-0.266418	0.034637
7547	-0.240936	0.001221
7548	-0.164032	0.011902
7549	-0.123138	0.047913
7550	-0.152283	0.067139
7551	-0.15976	0.045166
7552	-0.157776	-0.024567
7553	-0.15213	0.039825
7554	-0.189972	0.061951
7555	0.115662	0.044403
7556	0.098572	0.058136
7557	0.081329	0.017548
7558	0.019836	-0.012665
7559	-0.04837	0.031281
7560	-0.101013	0.026245
7561	-0.115356	0.058441
7562	-0.07782	0.037384
7563	-0.133057	0.067291
7564	-0.036163	0.067902
7565	0.024872	0.022583
7566	0.110931	0.007019
7567	0.200806	0.025024
7568	0.19104	0.052948
7569	0.224915	0.057068
7570	0.27298	0.019989
7571	0.114288	0.034485
7572	0.142059	0.04364
7573	0.055695	0.04837
7574	0.105896	0.04364
7575	0.081329	0.008698
7576	0.05127	-0.009003
7577	0.017548	0.021362
7578	0.028839	0.035706
7579	0.066528	-0.024414
7580	0.02243	-0.007019
7581	-0.000305	-0.010071
7582	-0.027924	-0.005951
7583	0.055695	0.029602
7584	0.011444	0.032349
7585	0.028687	0.036621
7586	0.097961	0.02182
7587	0.020752	0.03952
7588	-0.009003	0.007477
7589	0.018616	0.004883
7590	-0.03418	0.039825
7591	-0.03418	0.019226
7592	0.03891	0.074768
7593	0.059509	0.027924
7594	0.097809	0.001831
7595	0.056305	0.001831
7596	0.094299	0.019379
7597	0.079803	0.023651
7598	0.098114	-0.009155
7599	0.011292	0.001221
7600	0.080261	0.019073
7601	0.112	0.028381
7602	0.138092	0.053864
7603	0.057068	0.046997
7604	-0.073395	0.02533
7605	-0.078888	0.011597
7606	-0.009918	0.04425
7607	0.014191	0.033417
7608	-0.027466	0.029755
7609	0.030518	0.051575
7610	-0.061493	0.011292
7611	-0.052643	0.045929
7612	-0.048218	-0.00473
7613	-0.016937	0.017242
7614	-0.069275	-0.018768
7615	0.054016	0.033722
7616	0.006256	0.02243
7617	0.080109	0.027618
7618	0.066223	0.005798
7619	0.07019	0.04715
7620	0.050812	0.027924
7621	0.086975	0.032196
7622	0.019684	0.051575
7623	0.06012	-0.02243
7624	0.02655	-0.000305
7625	0.032654	0.06424
7626	0.080719	0.068665
7627	0.049438	0.024719
7628	0.057831	0.009918
7629	-0.019073	0.022583
7630	-0.016174	0.043793
7631	0.030975	0.041504
7632	-0.051117	0.029144
7633	0.012665	0.006256
7634	-0.117035	0.023651
7635	-0.054169	0.005188
7636	0.003815	0.065155
7637	-0.007629	0.030518
7638	0.123444	0.043945
7639	0.409393	0.081482
7640	0.597382	0.089722
7641	0.531158	-0.002441
7642	0.353394	0.012207
7643	0.166321	-0.012207
7644	-0.02182	0.056
7645	-0.312653	0.038757
7646	-0.559998	-0.001068
7647	-0.486298	0.015869
7648	-0.38269	0.029144
7649	-0.280304	0.058289
7650	-0.181274	0.044708
7651	-0.03891	0.032501
7652	-0.050964	0.005798
7653	-0.100098	0.029297
7654	-0.050354	0.027313
7655	-0.044098	0.065918
7656	0.010834	0.021362
7657	0.041656	-0.0177
7658	-0.008698	0.039825
7659	-0.016937	0.033722
7660	0.068207	0.024567
7661	0.022278	0.050201
7662	0.033569	-0.001068
7663	0.092316	0.026855
7664	0.093231	0.030823
7665	0.156708	0.029907
7666	0.137482	0.023651
7667	0.001831	-0.020752
7668	0.034943	-0.00412
7669	0.076141	0.028229
7670	0.068512	0.024719
7671	0.058441	-0.015564
7672	0.04303	-0.003662
7673	0.024872	0.075836
7674	0.058441	0.028381
7675	0.053253	-0.029144
7676	-0.011139	0.00351
7677	-0.001221	0.062714
7678	0.033112	0.069122
7679	0.019226	0.04715
7680	0.03067	-0.001526
7681	0.075226	-0.014496
7682	0.035553	0.020905
7683	0.116425	0.019531
7684	0.043488	0.03891
7685	0.08728	-0.004272
7686	0.086212	-0.000305
7687	0.020294	0.039825
7688	0.085602	0.041351
7689	0.054016	0.039978
7690	0.098724	0.00061
7691	0.093842	0.025787
7692	0.100403	0.047302
7693	0.09613	0.050049
7694	0.134735	0.035553
7695	0.197144	0.038147
7696	0.133667	0.031891
7697	0.050354	0.053101
7698	0.029907	0.070953
7699	0.016327	0.036163
7700	0.002289	0.023346
7701	0.011597	0.027618
7702	0.045929	0.071411
7703	0.015869	0.017548
7704	0.038147	-0.011749
7705	0.02594	0.010681
7706	-0.042877	0.044708
7707	0.036011	0.025177
7708	-0.022736	0.029144
7709	0.074615	0.023956
7710	0.034485	0.044861
7711	0.001984	0.04425
7712	0.027161	-0.013275
7713	0.01297	0.025787
7714	0.019226	0.085449
7715	-0.025177	0.041504
7716	0.015106	0.035553
7717	0.051422	0.06134
7718	0.025482	0.046387
7719	0.041046	0.041656
7720	0.010071	0.037231
7721	-0.031433	0.037384
7722	0.035706	0.084076
7723	0.086975	0.014191
7724	0.019836	0.034943
7725	0.006714	0.037079
7726	-0.005035	0.022888
7727	-0.02182	-0.010986
7728	-0.03067	-0.009003
7729	-0.000458	0.031281
7730	0.017395	0.038605
7731	0.022888	0.036316
7732	0.050964	0.010376
7733	0.010986	0.031738
7734	0.021515	0.001678
7735	0.056458	0.031433
7736	0.018616	-0.010376
7737	-0.029297	0.020752
7738	0.002289	-0.011139
7739	-0.028229	-0.03006
7740	-0.033875	-0.026398
7741	-0.018311	-0.004578
7742	-0.01709	0.017853
7743	0.031738	0.088654
7744	0.037231	0.033112
7745	0.007629	0.03479
7746	0.007782	0.033417
7747	0.021057	-0.009613
7748	0.019073	0.035553
7749	-0.011597	0.021057
7750	0.029297	-0.025024
7751	0.026703	0.03479
7752	0.002747	0.055389
7753	0.004883	0.010986
7754	0.027618	0.007019
7755	0.030212	0.006561
7756	0.010376	0.057068
7757	-0.001221	0.049591
7758	0.019836	-0.044556
7759	-0.065918	0.024567
7760	-0.053406	0.079041
7761	0.004578	0.045776
7762	0.087738	0.089417
7763	0.068665	-0.013275
7764	0.061951	0.022583
7765	-0.007782	0.026398
7766	0.02533	-0.010071
7767	-0.00824	0.027008
7768	0.0354	0.025482
7769	0.024872	0.020447
7770	0.028992	-0.016327
7771	0.028381	0.012817
7772	0.012207	-0.049591
7773	0.00885	0.03067
7774	0.013885	0.045013
7775	-0.040741	0.016479
7776	-0.055695	-0.013885
7777	-0.081787	-0.02594
7778	-0.027008	0.016174
7779	-0.003357	0.054932
7780	-0.002747	0.065613
7781	-0.009613	0.017548
7782	-0.013123	0.038757
7783	-0.043488	0.027008
7784	-0.012665	0.016022
7785	-0.011139	-0.00412
7786	0.030365	0.032654
7787	0.054016	-0.026855
7788	0.070801	0.024567
7789	0.079498	0.016327
7790	0.038147	-0.007935
7791	-0.024261	0.031433
7792	-0.05188	0.062256
7793	-0.057068	0.034332
7794	-0.006866	-0.029297
7795	-0.044861	0.003357
7796	-0.020599	0.029449
7797	0.058594	0.03891
7798	0.158539	0.011444
7799	0.121002	0.014191
7800	0.114441	0.015717
7801	0.077972	-0.003662
7802	0.0914	0.004578
7803	0.070343	0.002136
7804	0.066833	0.019989
7805	0.100403	0.018311
7806	0.066376	0.058594
7807	0.027924	0.01709
7808	0.002747	-0.011902
7809	-0.003204	0.007019
7810	0.020142	-0.018463
7811	0.030365	-0.012817
7812	0.032043	0.010071
7813	-0.022888	0.047455
7814	-0.030365	0.08606
7815	-0.011444	0.05127
7816	-0.005646	-0.027313
7817	-0.050964	-0.019226
7818	-0.031738	0.035706
7819	-0.019836	0.027466
7820	-0.005798	0.00473
7821	0.014954	0.026093
7822	0.018005	0.022583
7823	0.025177	0.059052
7824	0.04303	-0.00061
7825	0.013275	0.003967
7826	0.016327	0.005646
7827	0.011444	0.037079
7828	0.00946	0.029907
7829	0.037842	-0.001678
7830	0.054016	0.0383
7831	0.033417	0.026245
7832	0.035706	0.027924
7833	0.016327	0.02655
7834	0.060883	0.003052
7835	0.030975	0.0354
7836	0.029755	0.007477
7837	0.052795	0.025787
7838	0.036621	0.018311
7839	0.037079	-0.029297
7840	0.040588	0.041809
7841	0.041809	0.076294
7842	0.042267	0.057068
7843	0.038147	0.04715
7844	0.035706	0.014496
7845	0.011749	0.031586
7846	0.058746	0.008698
7847	0.068359	0.03952
7848	0.068512	0.044403
7849	0.056915	0.029907
7850	0.035706	0.072327
7851	0.036926	0.082092
7852	0.012817	0.0354
7853	0.0354	0.004425
7854	0.009003	0.034027
7855	0.029449	0.03418
7856	0.049591	0.05188
7857	0.034943	-0.002441
7858	0.030212	-0.008392
7859	-0.013733	0.015869
7860	0.033722	0.029755
7861	0.015564	-0.029297
7862	0.047913	0.044403
7863	-0.003204	0.053406
7864	0.025177	0.041351
7865	0.017395	0.06134
7866	0.021515	0.011749
7867	0.014801	0.015717
7868	-0.012054	0.021973
7869	-0.020294	0.029449
7870	-0.039978	0.029449
7871	-0.011292	-0.023804
7872	0.029602	-0.026245
7873	0.006866	0.054169
7874	0.056	0.048523
7875	0.09491	0.063629
7876	0.081177	0.025024
7877	0.049896	0.077057
7878	0.056	0.067139
7879	0.062714	0.054932
7880	0.067291	-0.04715
7881	0.055847	-0.025177
7882	0.084381	-0.022888
7883	0.076904	0.028381
7884	0.032654	0.066528
7885	0.027924	0.070801
7886	0.021057	0.062408
7887	0.041351	0.034943
7888	0.001526	-0.019836
7889	0.035858	-0.040588
7890	0.026093	-0.024109
7891	0.005035	-0.002594
7892	0.022583	-0.003967
7893	0.032349	0.028534
7894	-0.005798	-0.002136
7895	0.032959	-0.002747
7896	-0.035706	0.037994
7897	0.050964	-0.001373
7898	0.041199	0.00473
7899	0.054016	0.033875
7900	0.03006	0.048981
7901	0.04364	0.035706
7902	0.050964	0.023041
7903	-0.015259	-0.029449
7904	-0.024414	-0.007629
7905	0.039215	0.001678
7906	0.008392	0.01358
7907	0.049286	0.035858
7908	0.014191	0.076294
7909	0.016327	0.077972
7910	0.057678	0.022278
7911	0.041046	0.038605
7912	-0.021667	0.030823
7913	0.018616	0.044403
7914	0.067291	-0.021973
7915	0.050659	-0.050354
7916	0.031281	0.029144
7917	0.019073	0.040436
7918	0.019073	0.127258
7919	0.016479	0.068817
7920	0.030365	0.117035
7921	0.023804	0.094299
7922	0.039673	0.141602
7923	0.018921	0.233002
7924	0.010834	0.213165
7925	-0.022278	0.160828
7926	0.011444	0.020599
7927	0.039368	-0.121002
7928	0.025024	-0.091553
7929	0.001526	-0.110168
7930	0.009308	-0.108337
7931	0.022125	-0.093231
7932	0.054016	-0.092468
7933	0.028381	-0.042267
7934	-0.031891	-0.032043
7935	-0.022736	-0.007019
7936	0.06134	0.024109
7937	0.054016	0.027313
7938	0.00412	0.065918
7939	0.022888	0.110779
7940	0.010529	0.155029
7941	0.036926	0.115814
7942	0.005951	0.103302
7943	0.02594	0.02182
7944	0.060577	0.046539
7945	0.049133	0.041809
7946	0.037994	0.038605
7947	0.009613	-0.055695
7948	0.027313	-0.113983
7949	0.043488	-0.08316
7950	0.039673	-0.066681
7951	0.025635	-0.040741
7952	0.058594	-0.000153
7953	0.059967	0.040436
7954	0.072632	0.022125
7955	-0.004425	-0.02655
7956	0.012512	-0.028076
7957	0.023499	-0.055237
7958	0.049286	-0.130768
7959	0.061188	-0.191193
7960	-0.011444	-0.235138
7961	-0.011902	-0.169373
7962	0.010071	-0.149231
7963	-0.023651	0.00824
7964	0.032043	0.248718
7965	-0.011139	0.402832
7966	0.007019	0.321045
7967	0.050964	0.162659
7968	0.00061	0.05661
7969	0.015564	0.056152
7970	-0.013275	0.04715
7971	0.006866	0.043945
7972	0.059052	0.062561
7973	-0.007324	0.041504
7974	0.041656	0.063629
7975	0.027161	0.136871
7976	0.021667	0.020294
7977	0.022888	0.088806
7978	0.013428	0.076447
7979	0.017242	0.040588
7980	0.026245	0.064545
7981	0.017242	0.027466
7982	0.012665	0.011749
7983	-0.006561	0.039063
7984	-0.008392	0.043945
7985	-0.033264	0.042419
7986	0.020294	0.02655
7987	0.036926	0.031433
7988	0.029449	0.004425
7989	0.030518	-0.002289
7990	-0.008698	0.036163
7991	0.005646	0.099487
7992	0.020294	0.227814
7993	0.010681	0.173035
7994	0.033875	0.039978
7995	0.014191	-0.072174
7996	0.036163	-0.136566
7997	0.047607	-0.166473
7998	0.062256	-0.065308
7999	0.049896	0.088348
8000	0.023346	0.012817
8001	0.063782	-0.021667
8002	0.013123	-0.015717
8003	-0.009155	0.063019
8004	0.058441	0.036774
8005	0.033417	0.012054
8006	0.044098	0.000153
8007	-0.000763	0.019379
8008	0.00412	0.049896
8009	0.065613	0.019684
8010	0.054016	0.022278
8011	0.055695	0.036469
8012	0.035248	0.027161
8013	0.016479	0.091248
8014	0.013123	-0.011444
8015	0.024719	0.019531
8016	-0.004272	0.033722
8017	-0.006256	0.056763
8018	0.043488	0.031738
8019	0.039063	-0.019989
8020	-0.027313	-0.037231
8021	0.048828	0.022125
8022	0.007019	-0.02182
8023	0.009918	0.076447
8024	0.01236	0.020447
8025	-0.019379	-0.006866
8026	-0.020752	0.023346
8027	0.038757	0.069122
8028	0.012817	0.052185
8029	-0.025635	0.003357
8030	0.017395	0.017548
8031	0.030212	0.061798
8032	0.015564	0.045776
8033	0.005798	0.037231
8034	0.016022	0.002136
8035	0.017242	0.02121
8036	-0.005646	0.06897
8037	0.031891	0.240479
8038	0.031586	0.188751
8039	-0.001526	0.190125
8040	-0.005493	0.202026
8041	0.006561	0.194244
8042	-0.004272	0.124817
8043	0.027466	0.13382
8044	-0.016174	0.181122
8045	0.080414	-0.095673
8046	0.034637	-0.057678
8047	-0.001678	-0.039825
8048	0.01297	-0.003662
8049	0.018311	0.049896
8050	0.029755	-0.019379
8051	0.022278	-0.007629
8052	0.00824	0.053406
8053	-0.011444	0.050354
8054	0.00473	0.112
8055	0.035095	0.043182
8056	0.037537	0.052948
8057	0.002441	0.053253
8058	0.01297	-0.019379
8059	0.055847	0.037384
8060	0.027008	-0.108643
8061	0.008545	-0.019989
8062	-0.014954	-0.013885
8063	0.046692	0.026855
8064	0.042267	-0.002289
8065	0.021057	-0.079803
8066	0.025787	-0.077515
8067	0.054474	-0.00473
8068	0.054169	-0.01236
8069	0.03067	-0.026245
8070	0.05249	-0.084229
8071	0.062408	-0.155029
8072	0.04364	-0.267181
8073	0.057373	-0.255585
8074	0.005646	-0.196991
8075	0.041656	-0.08606
8076	0.029144	0.000916
8077	0.026093	0.102234
8078	0.044708	0.251617
8079	0.001068	0.249023
8080	0.024872	0.211029
8081	0.000458	0.122833
8082	0.009613	0.096741
8083	0.032501	0.111542
8084	0.041504	0.146484
8085	-0.006409	0.148163
8086	-0.012817	0.115509
8087	-0.018921	0.150604
8088	0.056	0.133514
8089	0.037537	0.121613
8090	0.036621	0.076752
8091	0.017395	0.139465
8092	0.027008	0.175323
8093	0.014954	0.126343
8094	0.015564	-0.129242
8095	-0.019989	-0.148315
8096	0.006104	0.03891
8097	0.022278	-0.014801
8098	0.044556	-0.070801
8099	0.033722	-0.026245
8100	0.005188	0.062103
8101	-0.027924	0.097961
8102	0.024719	0.056458
8103	-0.012207	0.018616
8104	0.009613	0.028992
8105	0.0383	-0.010071
8106	0.016174	-0.014038
8107	-0.004425	-0.038452
8108	0.038452	-0.022736
8109	-0.005646	0.003052
8110	0.0354	-0.069427
8111	0.042877	0.049133
8112	0.010376	-0.007935
8113	-0.002441	0.056305
8114	0.019836	0.018463
8115	0.018158	0.036163
8116	0.016632	-0.00351
8117	0.010986	-0.024414
8118	0.026093	-0.010834
8119	0.018768	0.042725
8120	0.032501	0.048828
8121	-0.004272	0.035706
8122	0.014343	0.033417
8123	0.014191	-0.010071
8124	0.050049	-0.00412
8125	0.068817	0.018158
8126	0.027466	0.044556
8127	0.028992	0.061646
8128	0.059814	0.017395
8129	0.063934	0.012817
8130	0.027466	0.08316
8131	-0.000916	0.108948
8132	0.039368	0.177002
8133	0.064087	0.053558
8134	0.083313	-0.009308
8135	0.019531	-0.051117
8136	0.00946	-0.162354
8137	0.028992	-0.258636
8138	0.0383	-0.14801
8139	0.016937	-0.010223
8140	0.022125	-0.001068
8141	0.003662	0.031738
8142	0.032501	-0.010223
8143	0.022278	-0.009613
8144	-0.018768	0.003052
8145	-0.002441	0.059509
8146	0.021667	0.054626
8147	0.016937	0.087128
8148	-0.003204	0.051727
8149	0.015106	-0.012817
8150	0.021515	0.067902
8151	0.00061	0.050507
8152	0.019531	0.017242
8153	0.002747	-0.011902
8154	0.033722	0.036163
8155	0.034332	0.044098
8156	0.019684	0.012665
8157	0.005951	0.028381
8158	-0.00885	0.077667
8159	0.018768	0.059662
8160	0.026093	0.056
8161	0.00061	0.043335
8162	0.007782	0.079041
8163	-0.017548	0.035095
8164	0.0177	-0.011139
8165	-0.000916	0.003815
8166	0.019989	-0.038452
8167	0.006256	0.028687
8168	0.027924	0.004425
8169	0.063019	-0.02182
8170	0.005798	-0.018463
8171	-0.00412	0.011902
8172	0.035095	0.04303
8173	0.046082	0.01297
8174	0.028076	-0.002289
8175	0.018311	0.001526
8176	0.01297	0.016022
8177	0.072937	0.043488
8178	0.016174	-0.002594
8179	-0.004883	-0.023041
8180	0.014343	0.032501
8181	0.04425	-0.025787
8182	0.058136	0.054626
8183	0.05249	0.022736
8184	0.009918	0.059509
8185	0.024719	0.012512
8186	0.034943	-0.007782
8187	0.027008	0.018921
8188	0.029602	0.009766
8189	0.036621	0.022125
8190	0.056152	0.054169
8191	0.030823	-0.030518
8192	-0.004272	-0.036316
8193	0.002441	0.026245
8194	0.014648	0.002289
8195	0.045319	0.005341
8196	0.039673	0.033875
8197	0.018921	0.013733
8198	0.075836	0.070801
8199	0.039368	-0.022888
8200	0.010681	0.010529
8201	-0.001526	0.01358
8202	-0.006409	0.047455
8203	0.04425	0.040894
8204	0.027008	-0.022278
8205	0.041962	0.042114
8206	0.020905	0.08255
8207	-0.008392	0.03479
8208	0.028687	0.030823
8209	0.006409	-0.022888
8210	0.015411	-0.001221
8211	0.008545	0.018463
8212	-0.001221	0.010071
8213	0.074005	0.004883
8214	0.00412	-0.008087
8215	-0.008545	0.016937
8216	0.032806	-0.000916
8217	0.012665	0.047455
8218	0.033264	-0.003357
8219	0.033417	0.001221
8220	0.003052	-0.010834
8221	0.014038	0.016327
8222	0.022125	0.030212
8223	0.032806	0.044708
8224	0.01297	-0.022583
8225	0.015411	0.082092
8226	0.072784	-0.020294
8227	0.010223	0.055084
8228	0.020294	0.006409
8229	0.002747	0.055542
8230	0.030518	0.008545
8231	0.019836	0.008698
8232	0.006866	0.028381
8233	-0.000458	0.044861
8234	0.018463	0.000763
8235	0.069885	-0.025024
8236	-0.036621	-0.097656
8237	0.009308	-0.010223
8238	0.031891	0.037994
8239	0.047302	0.057068
8240	0.024261	-0.010529
8241	0.036316	0.079803
8242	0.011292	0.014191
8243	0.031128	0.008087
8244	0.045929	0.023193
8245	0.029144	0.060883
8246	0.032501	0.079041
8247	0.032806	0.071869
8248	0.044098	0.020447
8249	0.023956	0.056305
8250	0.015717	0.034027
8251	0.038605	0.138855
8252	0.041199	0.218048
8253	0.047607	0.124664
8254	0.037689	0.089874
8255	0.040436	-0.100555
8256	0.056458	-0.110168
8257	0.023193	0.022278
8258	-0.007019	-0.007172
8259	-0.02182	0.028534
8260	0.019073	-0.064545
8261	0.04776	-0.05188
8262	0.03067	-0.003967
8263	0.030212	-0.030365
8264	0.00351	-0.058289
8265	-0.00412	-0.088654
8266	0.017242	-0.097809
8267	0.010376	-0.036316
8268	0.046692	-0.016327
8269	0.012054	-0.00061
8270	0.002289	0.005798
8271	0.00946	-0.037537
8272	-0.024261	-0.078125
8273	0.031433	-0.026245
8274	0.010071	-0.057373
8275	0.020447	-0.016632
8276	0.006104	0.019073
8277	0.042419	-0.005188
8278	0.036469	0.025482
8279	-0.01236	0.070953
8280	-0.001984	0.111847
8281	0.011444	0.099182
8282	0.057983	0.126038
8283	0.020142	0.057068
8284	0.022278	0.08316
8285	0.024872	0.0383
8286	0.034943	0.10849
8287	0.009308	-0.059967
8288	0.035858	-0.008087
8289	-0.010986	0.049438
8290	0.029602	0.042877
8291	0.04715	0.060577
8292	0.054626	0.078583
8293	-0.000153	0.049591
8294	0.037842	0.122528
8295	0.007629	0.101166
8296	0.030212	0.069122
8297	0.041504	0.035553
8298	0.053711	0.086975
8299	0.049744	0.04425
8300	0.048828	0.007019
8301	0.037537	-0.003204
8302	0.042725	0.026398
8303	0.005035	-0.027161
8304	0.044708	0.030518
8305	0.053711	0.00885
8306	0.033264	-0.017853
8307	0.006104	0.048523
8308	0.046692	0.030212
8309	0.027161	0.098419
8310	0.04364	0.014038
8311	0.027008	-0.017548
8312	0.054474	-0.031281
8313	0.058289	-0.001221
8314	0.049744	0.045013
8315	0.035095	0.097961
8316	0.027618	0.158386
8317	0.039673	0.077362
8318	0.049438	0.061493
8319	0.026245	0.023499
8320	0.032043	0.056
8321	0.020142	0.116577
8322	0.030365	0.186615
8323	0.031281	0.080719
8324	0.001526	0.162048
8325	0.012817	0.021667
8326	0.021057	-0.04837
8327	0.015717	-0.107117
8328	0.006104	-0.002747
8329	-0.009155	-0.055847
8330	-0.021362	-0.097504
8331	0.022125	-0.028992
8332	0.027161	-0.054321
8333	0.026855	0.019226
8334	-0.010529	-0.018311
8335	0.01297	0.015411
8336	0.02594	-0.027008
8337	0.010834	0.006714
8338	-0.012054	-0.011749
8339	0.049286	0.116577
8340	0.034027	0.025635
8341	0.019836	0.031891
8342	0.043182	0.032501
8343	-0.032501	-0.001678
8344	0.034943	-0.03952
8345	0.02533	-0.072784
8346	0.022278	-0.082855
8347	-0.002136	-0.043945
8348	0.041962	-0.045624
8349	0.015106	-0.072327
8350	-0.020599	-0.083313
8351	0.011749	0.012665
8352	0.07309	-0.05661
8353	0.012665	0.018768
8354	0.072327	0.119629
8355	0.010376	-0.006714
8356	0.042877	0.060425
8357	0.053558	0.032196
8358	0.046539	0.024872
8359	0.034027	0.046539
8360	0.066833	0.007172
8361	0.072021	0.035553
8362	0.076294	0.015106
8363	0.045776	0.067596
8364	0.045776	0.026398
8365	0.028687	0.060425
8366	0.005035	0.083008
8367	0.020752	0.011139
8368	0.027313	-0.001373
8369	0.062256	0.077362
8370	0.036469	0.079498
8371	0.015106	0.042114
8372	0.018005	-0.011292
8373	0.01236	0.096588
8374	0.025024	0.098267
8375	-0.014954	0.069733
8376	0.01236	0.067596
8377	0.035706	0.068817
8378	0.050812	0.059814
8379	0.025482	0.050507
8380	0.009003	0.028076
8381	-0.028381	0.053711
8382	-0.00061	-0.068817
8383	0.006104	-0.085754
8384	0.045624	0.010834
8385	0.015411	-0.024414
8386	0.045013	0.00061
8387	0.002594	-0.050507
8388	0.006104	-0.008392
8389	-0.012817	0.06485
8390	0.001068	0.002441
8391	-0.005798	0.06958
8392	0.03479	0.040131
8393	0.003967	0.061798
8394	0.002289	0.119324
8395	0.041199	0.14389
8396	0.027161	0.116882
8397	0.007019	0.021057
8398	-0.02121	-0.061188
8399	0.019989	-0.118866
8400	0.019989	-0.044403
8401	-0.023956	-0.074158
8402	0.016785	0.072632
8403	0.007172	0.00824
8404	0.051575	0.023956
8405	-0.006866	-0.036163
8406	0.022125	0.038757
8407	0.011292	0.027466
8408	0.046539	0.059509
8409	-0.003357	0.029449
8410	0.012665	0.068359
8411	0.02243	0.116272
8412	0.07019	0.102234
8413	0.01358	0.01236
8414	0.001984	0.048676
8415	0.022736	0.045166
8416	0.092316	0.078888
8417	0.06546	-0.005798
8418	0.027313	0.005341
8419	0.052185	0.112305
8420	0.051575	0.063782
8421	0.067291	0.011444
8422	0.021515	0.014496
