Sample #	EMG_A01	EMG_A04
1	0.023346	0.02182
2	0.025482	0.038452
3	0.026855	0.057678
4	0.022278	-0.005646
5	0.016937	0.042267
6	-0.036774	0.024719
7	0.064392	-0.001984
8	0.062561	0.046539
9	0.026398	0.023041
10	0.014038	0.039368
11	0.019836	-0.022125
12	0.012207	0.037079
13	-0.025635	0.006714
14	0.078888	-0.006256
15	-0.011292	-0.002441
16	0.053101	0.021362
17	-0.000153	-0.006409
18	0.03952	0.020905
19	0.037537	0.036316
20	0.028229	0.042572
21	0.067139	0.029907
22	0.002136	0.031738
23	0.070496	0.012054
24	0.028839	0.014496
25	0.027924	-0.080872
26	0.015717	-0.014343
27	0.001831	-0.013428
28	0.056458	0.055695
29	0.023193	0.037689
30	0.061188	0.000763
31	-0.017548	0.026093
32	-0.015869	0.044098
33	-0.013275	0.060272
34	0.014496	0.073395
35	0.028381	0.03952
36	-0.015717	0.036926
37	0.043793	0.022736
38	0.013123	0.035248
39	0.025635	-0.004272
40	0.031281	0.059814
41	0.026093	0.03952
42	0.031738	0.024719
43	0.022583	0.037994
44	0.023041	0.014343
45	-0.002899	0.018311
46	0.011902	-0.018463
47	0.022125	0.021973
48	0.027161	-0.032349
49	0.034943	0.071259
50	0.041199	0.082245
51	0.034943	0.100555
52	0.032806	0.046082
53	0.036774	0.014496
54	0.017548	0.010529
55	0.04837	0.011749
56	0.030365	-0.002747
57	0.069122	0.025177
58	0.039978	0.024109
59	0.026245	-0.016327
60	-0.000916	0.014343
61	-0.00824	0.030212
62	0.055695	-0.009613
63	0.013733	-0.009766
64	0.040131	-0.027466
65	-0.001221	0.001221
66	-0.020599	-0.028381
67	0.056763	0.028076
68	0.001831	0.028229
69	0.046539	-0.025787
70	-0.012665	0.027924
71	0.043488	0.021515
72	0.01358	0.00824
73	0.038452	0.014191
74	0.070801	0.0383
75	-0.022736	0.010071
76	-0.001831	0.054169
77	0.006409	0.022125
78	0.012207	0.029297
79	0.003052	0.035095
80	0.050812	-0.005341
81	0.008087	0.034332
82	0.00412	0.036011
83	0.061798	0.037079
84	0.006104	0.035858
85	0.056763	-0.001221
86	0.00824	0.046082
87	-0.005035	0.034485
88	0.040436	0.096588
89	0.019531	0.105133
90	0.029602	0.09079
91	-0.002594	0.057526
92	0.016327	0.000305
93	0.023956	0.049896
94	0.016022	0.063629
95	0.024414	0.050964
96	-0.003662	0.016937
97	0.028534	0.036774
98	-0.039368	-0.016174
99	-0.010071	-0.063477
100	-0.005951	-0.025482
101	0.007477	-0.026855
102	0.003662	0.023193
103	0.029755	-0.03418
104	0.018005	-0.00412
105	0.040741	0.007629
106	0.04425	0.005188
107	-0.01709	0.004272
108	0.040588	0.02243
109	0.017242	0.022278
110	0.021667	-0.003815
111	0.044861	0.018616
112	0.018158	0.06546
113	0.036316	-0.008087
114	0.039215	0.037994
115	0.037689	0.004272
116	0.036163	0.023499
117	-0.008087	0.033569
118	0.019989	0.01236
119	0.004578	-0.009155
120	0.040588	0.009613
121	-0.006714	0.029449
122	0.072937	0.007324
123	0.029907	0.048676
124	0.036163	0.001831
125	0.045166	0.054779
126	0.020447	0.00946
127	0.048981	0.024567
128	-0.001831	0.025024
129	0.041351	0.077972
130	-0.001678	0.019531
131	0.020599	0.013885
132	-0.011749	0.039368
133	0.005646	0.026245
134	0.007782	0.037079
135	-0.014038	0.032959
136	0.07019	0.009918
137	-0.029297	0.055237
138	0.050812	0.041809
139	0.041656	0.033875
140	-0.015717	-0.011292
141	0.017242	0.039368
142	0.031891	0.00351
143	0.031738	0.006561
144	0.018311	0.057678
145	0.039825	-0.006104
146	0.031433	0.007172
147	0.022583	0.023193
148	0.058136	0.038147
149	0.027008	0.02533
150	0.092773	0.040436
151	-0.014648	0.047302
152	0.017853	0.015564
153	0.006714	0.025024
154	0.027313	-0.014496
155	0.020447	0.047607
156	0.02655	0.046387
157	0.058441	0.085449
158	0.001068	0.057526
159	0.015564	0.015564
160	-0.010223	0.02243
161	0.021973	0.025177
162	0.049438	0.020142
163	0.066681	0.037842
164	0.030518	0.041656
165	0.007019	0.005646
166	0.021362	0.028076
167	0.005035	0.020142
168	-0.018463	0.036621
169	0.06897	0.047455
170	0.008392	0.025024
171	0.046082	0.052338
172	-0.001221	0.025024
173	0.055237	-0.053711
174	0.020447	0.022583
175	0.018463	0.010681
176	0.061493	0.022278
177	0.056305	0.01358
178	0.04364	0.037994
179	0.019836	0.016785
180	0.041809	0.020752
181	0.007935	0.045624
182	0.031586	-0.011902
183	0.080872	0.01236
184	0.036621	-0.066223
185	0.010834	0.006409
186	-0.011597	-0.00885
187	0.040131	0.061188
188	0.002289	0.065308
189	0.021667	0.045624
190	0.04364	0.090027
191	0.059052	0.010681
192	0.036621	0.017548
193	-0.016937	-0.034332
194	0.010071	-0.00351
195	0.003357	0.053406
196	0.005798	0.012817
197	0.07843	0.023499
198	0.052795	0.03067
199	0.026703	0.010529
200	-0.015259	-0.019226
201	0.038147	-0.02243
202	-0.007477	0.003967
203	0.042725	0.016785
204	-0.004883	0.044403
205	-0.002441	0.033875
206	-0.056915	0.040894
207	-0.019836	-0.003052
208	0.063629	0.098267
209	0.036774	0.026093
210	0.036163	-0.006561
211	0.03418	0.02594
212	0.046539	0.002594
213	0.043182	0.018005
214	0.031891	0.050507
215	0.023193	0.059052
216	-0.005951	0.036774
217	0.052643	-0.010681
218	0.030518	0.05188
219	0.047913	-0.02594
220	0.031891	0.001068
221	-0.029449	-0.034637
222	0.030212	0.034027
223	0.024567	-0.014191
224	0.007019	0.010529
225	0.012207	0.027618
226	-0.008698	0.012817
227	0.078278	0.025787
228	-0.003967	0.046082
229	0.015106	0.019836
230	0.018616	0.043335
231	0.012054	0.032043
232	0.037689	0.012512
233	-0.019531	0.043488
234	0.055084	0.007172
235	-0.071869	0.055389
236	0.058136	0.03006
237	0.016937	0.027008
238	0.042877	0.002747
239	0.079346	0.046387
240	0.010529	0.005798
241	0.019531	0.052032
242	0.014648	0.043182
243	-0.013733	-0.010834
244	-0.007172	0.063171
245	0.034637	0.05249
246	0.054016	0.068207
247	-0.000458	0.081024
248	0.007019	0.045471
249	0.066071	0.079041
250	-0.028992	0.007935
251	0.032043	0.040741
252	0.012665	0.04425
253	0.102386	0.006409
254	0.05249	0.014954
255	0.012512	-0.007172
256	-0.016937	0.084381
257	0.052338	0.020905
258	-0.012207	0.00946
259	0.007324	0.029755
260	0.027161	0.04303
261	0.047302	0.051422
262	0.009918	0.022736
263	0.033569	0.027618
264	0.006409	0.050507
265	0.084839	0.010071
266	-0.068054	0.033112
267	0.019684	0.011292
268	-0.011139	0.060272
269	-0.007172	0.031281
270	0.049591	0.016174
271	0.001526	0.046844
272	0.02243	0.020599
273	0.013885	0.060425
274	-0.015411	0.020294
275	0.045319	0.039673
276	-0.011902	0.059814
277	0.02594	0.041504
278	0.002441	0.019836
279	-0.000763	0.015106
280	0.010834	0.045624
281	0.035095	0.001221
282	0.047455	0.049133
283	0.020142	0.025635
284	0.058594	0.014648
285	-0.032806	0.039215
286	0.045166	-0.006866
287	0.055542	0.044708
288	-0.00412	-0.009918
289	0.056	0.057831
290	0.007782	0.066376
291	0.038605	0.037994
292	0.036926	0.040283
293	-0.052032	0.012512
294	-0.02182	0.060272
295	0.015411	0.053406
296	0.04715	0.03952
297	-0.00946	0.075073
298	0.023346	0.025482
299	0.05188	0.026093
300	-0.014496	0.022736
301	0.089874	0.023041
302	0.009766	0.031433
303	0.006256	0.015564
304	0.036316	0.070801
305	0.011749	0.006714
306	0.054169	0.049896
307	-0.020447	0.020142
308	0.075531	0.016327
309	-0.033112	0.055847
310	0.024109	-0.005188
311	0.053711	0.046234
312	0.016022	0.070038
313	0.018311	0.031586
314	0.071716	0.038452
315	-0.000458	0.002594
316	0.010376	0.04837
317	0.021515	0.03067
318	0.034485	0.028687
319	0.030212	0.020142
320	0.017395	-0.009766
321	0.029602	0.019226
322	0.046844	0.020599
323	0.098267	0.000153
324	0.04425	0.041809
325	0.020599	0.003357
326	0.018311	0.028992
327	-0.012817	0.061951
328	0.046539	0.04364
329	0.031586	0.020905
330	0.032196	-0.003967
331	-0.000916	0.018158
332	-0.002899	-0.034332
333	0.039063	-0.002899
334	-0.005798	0.014954
335	0.057373	-0.014954
336	-0.011597	0.006866
337	-0.007935	0.023956
338	0.022125	0.017395
339	-0.021057	0.015259
340	0.034332	0.005798
341	0.003357	0.03067
342	0.016632	0.013733
343	0.053558	0.031128
344	-0.049286	0.009918
345	0.071869	0.028687
346	0.033112	0.007172
347	0.052643	-0.028687
348	0.018921	0.048981
349	0.004883	0.043182
350	0.043488	0.025787
351	0.022888	0.00824
352	0.052948	0.025024
353	0.057831	0.03479
354	0.022736	-0.00412
355	0.088043	0.017548
356	0.056458	-0.011139
357	0.04776	0.021515
358	0.076752	0.033569
359	0.006561	0.015411
360	-0.011139	0.042572
361	0.026245	-0.005493
362	0.028839	-0.042419
363	0.028534	-0.015106
364	0.0177	-0.005035
365	0.050812	0.10437
366	-0.003357	0.065613
367	0.038605	0.046997
368	0.00473	0.055084
369	0.027161	-0.025177
370	-0.015106	0.042267
371	-0.004578	0.0354
372	0.047607	0.0383
373	0.00412	0.019684
374	-0.005188	0.034485
375	0.011749	0.056458
376	0.016022	-0.012207
377	0.052948	0.010223
378	0.002747	0.000763
379	0.03952	0.005951
380	0.002136	0.037537
381	0.06073	0.00885
382	0.033722	0.035095
383	0.019226	0.008545
384	0.028229	-0.013428
385	0.031128	0.025177
386	0.001221	0.012512
387	0.088196	0.031738
388	0.015564	0.023193
389	0.072632	0.029144
390	0.003662	0.006561
391	0.0383	0.025024
392	-0.000916	-0.000153
393	0.014648	0.002136
394	0.06012	0.042725
395	0.033722	0.005035
396	0.023651	0.01297
397	0.035553	0.025177
398	0.027008	0.015869
399	0.029297	0.031738
400	0.00473	0.007477
401	0.070648	0.023499
402	-0.013733	0.003052
403	0.097046	0.016022
404	0.011749	0.029297
405	0.014801	-0.019379
406	0.045013	0.041962
407	0.041809	0.007324
408	0.019836	0.004272
409	0.024567	0.009613
410	0.053253	-0.002136
411	0.014343	0.04425
412	0.033112	-0.001526
413	0.018311	0.018921
414	0.005341	0.019684
415	0.043335	0.006561
416	-0.019989	0.02594
417	0.067291	-0.010986
418	0.048523	0.061798
419	0.047302	0.001526
420	0.0354	0.00824
421	0.011139	0.022278
422	0.02121	0.013123
423	0.03952	0.032501
424	0.040436	0.000305
425	0.055084	0.00946
426	0.010834	0.015869
427	0.06424	0.02182
428	0.029602	0.03418
429	0.042572	0.04776
430	0.029907	0.065765
431	0.023956	0.037842
432	0.033722	0.005798
433	-0.002289	0.014191
434	0.033112	-0.027924
435	0.027618	-0.002747
436	0.023956	0.005798
437	0.049133	0.011749
438	0.023193	0.003967
439	0.01236	0.029449
440	0.014496	0.0354
441	0.042877	0.010681
442	0.049438	0.07309
443	0.01236	0.038452
444	0.037231	0.022888
445	-0.002594	0.02243
446	0.106964	0.001678
447	0.076141	0.032043
448	0.047302	-0.011902
449	0.003357	0.068665
450	0.016632	0.014038
451	0.035095	0.037231
452	-0.002747	0.031738
453	0.019989	0.006104
454	0.014496	0.006256
455	0.040436	-0.022278
456	0.018921	0.026855
457	-0.007782	-0.011444
458	0.027771	0.048828
459	0.003967	0.034027
460	0.055389	-0.001221
461	0.083313	0.034027
462	0.06134	-0.007019
463	0.04364	0.002899
464	0.015717	0.030823
465	0.031891	0.04776
466	0.041809	0.024109
467	0.067444	0.025482
468	0.000763	0.04425
469	-0.00824	0.010376
470	0.001984	0.032959
471	0.029755	0.045776
472	0.007324	0.007477
473	0.050659	0.021667
474	0.023956	-0.000916
475	0.067291	-0.01236
476	0.007172	0.016937
477	0.032959	0.016785
478	0.02533	0.052338
479	0.027618	0.051575
480	0.041962	0.009155
481	0.013428	0.006561
482	0.036469	-0.005646
483	0.032806	0.013275
484	0.007172	-0.002136
485	0.00824	0.002441
486	0.024261	0.030823
487	0.037079	0.028687
488	0.028534	0.060577
489	0.027466	0.093536
490	0.036621	0.023193
491	0.014038	0.057526
492	0.028381	0.039368
493	0.026245	0.090485
494	-0.013428	0.024719
495	0.015411	0.023651
496	-0.010071	-0.003357
497	0.024261	-0.037079
498	0.028839	0.018005
499	0.018921	0.002136
500	0.052643	0.019531
501	0.0177	0.016327
502	0.037842	0.021667
503	-0.011444	0.046234
504	0.022736	0.015564
505	0.024261	0.032501
506	-0.010376	0.027313
507	0.033264	-0.005188
508	0.003357	0.017853
509	-0.001678	-0.023499
510	0.031586	0.019073
511	-0.010986	0.040436
512	0.030212	-0.016174
513	0.006561	0.026398
514	0.019836	0.010834
515	0.052643	0.0354
516	-0.004272	0.018616
517	0.03067	0.034027
518	0.004883	0.07309
519	-0.020752	-0.002594
520	0.054474	0.009155
521	0.008087	0.041046
522	0.030365	0.005188
523	0.030975	0.042114
524	0.009918	-0.005188
525	0.043793	0.021973
526	-0.005798	0.039215
527	0.032349	0.076294
528	0.011292	0.081329
529	0.009766	-0.023346
530	-0.004425	0.060272
531	-0.010529	0.019379
532	0.005798	0.045471
533	0.026855	0.03067
534	0.046997	0.046234
535	0.04364	0.0354
536	0.025635	0.019531
537	0.064392	0.035706
538	0.022278	0.039825
539	0.043945	0.0383
540	-0.034943	0.087891
541	0.036163	0.037994
542	0.009308	0.044403
543	0.01297	0.021057
544	0.031128	0.049896
545	-0.005493	0.03479
546	0.037384	0.01236
547	0.030823	0.073853
548	-0.009308	0.054169
549	0.031586	0.048065
550	0.031128	0.026093
551	0.028839	0.068207
552	0.013885	0.045471
553	0.030823	-0.002594
554	0.040588	0.047455
555	0.031586	-0.016937
556	0.033569	0.000153
557	0.018921	0.03006
558	0.053253	0.033722
559	0.024567	0.012512
560	0.010071	0.040741
561	0.010376	0.048218
562	0.059509	0.047302
563	0.043488	0.03479
564	0.010834	0.057373
565	0.058441	-0.011749
566	0.027008	0.046387
567	0.030975	-0.016327
568	0.002899	0.006256
569	-0.000153	0.057678
570	0.038147	0.050049
571	-0.003967	0.042419
572	-0.001831	0.037994
573	0.016022	0.041504
574	0.000305	0.04303
575	0.045166	0.034332
576	0.03952	0.03067
577	0.061646	0.040894
578	-0.005341	0.043793
579	-0.00412	0.041046
580	0.027771	0.047913
581	-0.006104	0.024872
582	0.031281	0.04776
583	0.00061	0.023499
584	0.045471	0.016327
585	-0.014801	0.07843
586	-0.000458	0.028839
587	0.016937	0.040588
588	-0.016785	0.013123
589	0.037384	0.021057
590	0.034027	0.031128
591	0.02182	0.014343
592	0.02594	0.032349
593	-0.028839	0.014496
594	0.027618	0.029602
595	0.02533	0.011902
596	0.0177	0.02182
597	-0.018311	0.056458
598	-0.008087	0.03006
599	0.053711	0.006409
600	-0.009613	0.017853
601	0.042419	0.019836
602	0.02182	0.027771
603	0.026398	0.02121
604	0.025635	0.014648
605	-0.006104	0.041351
606	0.016479	-0.057068
607	-0.003815	0.011139
608	0.007172	-0.019989
609	0.043945	-0.000458
610	0.02121	0.014801
611	0.03418	0.015564
612	0.02182	0.088806
613	0.016022	0.050354
614	0.018921	0.010376
615	0.02594	0.046539
616	0.023346	0.058136
617	0.027771	0.025787
618	0.024567	0.007935
619	0.04303	0.041809
620	-0.00473	0.003662
621	0.050201	0.054932
622	0.02594	0.052185
623	0.053558	0.028229
624	0.037231	0.067902
625	0.003967	0.018311
626	0.023499	0.019073
627	-0.003967	0.056763
628	0.051422	-0.032196
629	0.038757	0.043488
630	0.028076	0.011597
631	0.032654	0.042877
632	0.037537	0.052795
633	0.060883	0.012512
634	0.007629	0.04715
635	0.019073	0.013733
636	0.046692	0.012512
637	0.024719	0.000916
638	-0.007935	0.019989
639	0.018768	0.04364
640	0.004425	0.031281
641	-0.012207	0.012512
642	-0.001221	-0.033722
643	0.010376	0.055847
644	0.013885	0.003357
645	0.041504	0.010681
646	0.053864	0.06958
647	0.017242	0.010986
648	0.001373	0.037079
649	-0.003357	0.009918
650	0.067902	0.002594
651	0.052948	-0.014038
652	0.042267	0.019531
653	-0.001221	0.021362
654	-0.014496	0.018311
655	0.026398	0.00351
656	0.044098	0.062866
657	0.045776	-0.007019
658	0.018158	-0.002594
659	0.021057	0.038452
660	0.054626	-0.00412
661	0.009766	0.019684
662	0.052948	-0.00412
663	0.035095	0.065002
664	0.005188	0.019379
665	0.026398	0.015106
666	0.004883	0.017853
667	0.020752	0.002441
668	0.00061	0.065002
669	-0.024719	0.009308
670	0.003815	0.0383
671	-0.001373	-0.013428
672	0.046082	0.045624
673	0.0354	0.001373
674	0.075531	-0.003662
675	0.060883	0.07431
676	0.009918	-0.005798
677	0.02121	-0.007324
678	0.042572	0.026855
679	0.012665	0.026245
680	0.008087	0.049286
681	0.01236	0.015106
682	0.045319	0.025177
683	0.003967	0.064392
684	0.03006	-0.007782
685	0.003204	0.042114
686	0.041046	0.035095
687	0.048828	0.015106
688	0.00946	0.023041
689	0.045624	-0.016327
690	0.006256	0.025024
691	-0.001678	0.029144
692	-0.012054	-0.00412
693	-0.004425	0.014191
694	0.049133	0.014954
695	0.036926	0.018768
696	0.020752	-0.00412
697	0.065918	0.043335
698	0.009155	0.048676
699	-0.001831	0.045624
700	0.018005	0.044556
701	0.032959	0.042419
702	0.049896	0.089874
703	-0.006256	0.042267
704	0.016022	0.039825
705	-0.002899	0.06485
706	0.007782	0.02121
707	0.011444	0.078735
708	0.04425	0.025177
709	0.037537	0.004425
710	0.043793	0.034027
711	0.040283	0.025177
712	0.011139	-0.006104
713	0.005646	-0.017853
714	-0.01236	0.022583
715	0.005035	0.04303
716	0.006714	-0.02655
717	0.000916	-0.021362
718	-0.012817	0.00412
719	0.052185	0.059967
720	0.013733	0.029907
721	0.054932	-0.003052
722	0.01709	0.044098
723	0.03067	0.049286
724	-0.005951	0.042114
725	0.059814	-0.002594
726	0.066681	0.019531
727	0.010681	0.03067
728	0.02655	0.038757
729	0.028687	0.009155
730	0.031738	0.014343
731	-0.000305	0.068512
732	0.020294	0.018768
733	0.028992	0.011292
734	0.018616	0.036469
735	0.046539	-0.008392
736	0.037384	0.062866
737	0.016327	-0.002289
738	0.06424	0.069733
739	0.013885	0.036163
740	0.036316	0.05127
741	-0.009613	0.010986
742	0.019226	0.038757
743	0.054321	0.036926
744	0.012207	0.051575
745	0.029602	0.014343
746	-0.01297	0.033112
747	0.016785	0.039063
748	0.046539	0.027313
749	0.008698	0.00061
750	0.04776	0.01236
751	-0.016327	0.070343
752	0.006561	0.012207
753	-0.021667	0.047302
754	0.027618	0.019073
755	0.045166	0.023651
756	-0.028687	0.030975
757	0.040283	0.018768
758	0.013428	0.037842
759	0.046234	0.017548
760	0.042725	0.017242
761	0.029907	0.03006
762	0.018921	0.030212
763	0.017853	0.028534
764	0.023804	-0.007477
765	0.040131	0.023041
766	0.024567	0.029602
767	0.044708	-0.009308
768	0.023193	0.072174
769	0.022278	0.040283
770	0.015411	0.064087
771	0.01236	0.00824
772	0.042267	0.030975
773	0.004883	0.071106
774	0.002441	0.015869
775	0.061493	0.021362
776	0.024567	0.005798
777	0.033722	0.015106
778	-0.003662	0.008545
779	0.039673	0.018005
780	0.004425	0.035248
781	0.007782	0.072632
782	0.043182	0.054626
783	0.02533	0.022278
784	0.023499	0.002594
785	-0.010986	0.094452
786	0.006409	0.067596
787	0.041809	0.028076
788	-0.00473	0.088043
789	0.020142	0.037689
790	0.011902	0.009155
791	-0.012512	0.003967
792	0.020599	0.065613
793	0.038147	0.016327
794	0.032196	0.017395
795	0.040588	-0.038605
796	0.019379	0.005035
797	-0.010986	0.03891
798	0.004578	-0.005646
799	0.05188	-0.00412
800	0.029449	0.019836
801	0.035095	-0.003967
802	0.003967	0.046997
803	0.03418	-0.005188
804	0.052338	0.040741
805	0.002594	0.068054
806	0.042419	-0.006561
807	0.017242	0.018616
808	0.036316	0.033112
809	0.019226	-0.004883
810	0.009003	-0.010223
811	0.024109	0.010223
812	0.030212	0.065613
813	0.009918	0.028992
814	0.015564	0.03067
815	0.004272	0.032349
816	0.037994	0.016327
817	0.045013	0.016327
818	0.026093	0.051117
819	0.076447	0.068054
820	0.027466	0.069275
821	0.056305	0.002594
822	-0.009155	0.024109
823	0.035553	0.008545
824	0.03891	0.016632
825	0.030975	-0.017395
826	0.041962	-0.013123
827	0.029449	-0.050354
828	0.007324	-0.02121
829	0.032654	-0.003357
830	0.016937	-0.033722
831	0.003967	0.037842
832	0.02594	-0.023041
833	0.054016	-0.033569
834	0.016327	-0.003662
835	0.057831	0.009003
836	0.054932	0.046082
837	0.056458	-0.018921
838	-0.019226	0.016937
839	-0.014954	0.04776
840	0.045929	0.011444
841	0.036316	0.025024
842	0.012054	-0.010681
843	0.033112	0.014496
844	-0.00473	0.032959
845	0.024261	0.017242
846	0.027161	0.008087
847	0.035095	0.028687
848	0.086365	0.020599
849	0.023651	0.041962
850	0.019226	0.01709
851	0.032806	0.021515
852	0.003204	0.027161
853	0.05249	0.054626
854	0.023346	0.028687
855	0.035706	0.028534
856	0.016785	0.007324
857	0.032349	0.067902
858	-0.012207	0.057983
859	0.015106	0.035553
860	0.024414	0.053864
861	0.013733	0.062561
862	0.024567	0.056458
863	0.024567	0.023041
864	0.011292	0.016785
865	0.040588	0.026855
866	0.027466	0.036926
867	0.056458	0.001221
868	0.018616	-0.003052
869	0.021515	0.041199
870	0.034943	0.018616
871	0.021057	0.011902
872	0.042114	0.026245
873	0.016785	0.027618
874	0.028839	0.016937
875	0.020599	0.021667
876	-0.00824	-0.038605
877	0.079041	0.042877
878	0.019379	0.022888
879	0.033569	0.031128
880	-0.001221	0.044403
881	0.017395	0.0177
882	0.065155	0.044403
883	0.028839	0.034485
884	0.039673	0.070953
885	0.027313	0.016022
886	0.034637	-0.015411
887	0.017395	0.082855
888	0.032806	0.042267
889	0.067291	0.029144
890	0.024109	0.035858
891	0.036621	0.037384
892	0.016632	-0.002899
893	0.027618	0.002441
894	0.021362	0.043335
895	0.015717	0.041351
896	0.029755	0.010071
897	-0.006256	0.036926
898	0.020905	0.019836
899	0.052948	-0.002594
900	0.036469	0.004578
901	0.065918	-0.009155
902	0.014496	0.035706
903	0.009766	0.031433
904	0.041504	0.030518
905	0.06134	0.016327
906	0.048676	0.042419
907	0.020294	0.005188
908	0.032959	-0.009613
909	0.013123	0.021362
910	0.027313	-0.033875
911	0.053711	0.065155
912	0.023956	0.001068
913	0.044098	-0.003052
914	0.014191	0.067596
915	0.016785	-0.00946
916	0.036469	0.036163
917	0.056458	0.035553
918	0.019531	0.02121
919	0.021667	0.045319
920	0.00824	0.030212
921	0.019379	-0.012665
922	-0.006256	-0.001373
923	0.006256	0.097809
924	0.019073	0.105286
925	0.056	0.088501
926	-0.006256	0.06134
927	0.005493	0.040131
928	0.012817	0.072784
929	-0.005035	0.055695
930	0.054474	0.049744
931	-0.041656	-0.014648
932	0.012207	-0.010834
933	0.024414	0.020599
934	0.016022	0.005188
935	0.0177	0.033264
936	0.01297	0.004578
937	0.00946	-0.029297
938	0.024719	0.033264
939	-0.000153	0.036926
940	0.025482	0.00946
941	-0.005951	0.000458
942	0.032806	0.01358
943	0.005646	-0.028076
944	-0.002594	0.031433
945	0.024261	-0.020752
946	0.00824	0.027466
947	0.029602	0.061951
948	0.022583	0.01297
949	0.018616	-0.016632
950	0.010681	0.008698
951	-0.014343	-0.022888
952	0.038605	0.054932
953	0.000458	0.071564
954	0.022736	-0.000763
955	0.003052	0.021973
956	0.003662	0.008698
957	0.036011	0.029449
958	-0.003662	0.010986
959	0.005646	0.00946
960	0.017242	0.046844
961	0.007782	0.064392
962	0.018768	0.014496
963	0.019379	0.050964
964	0.017548	0.050812
965	0.01709	0.067444
966	0.033112	0.010681
967	-0.012054	0.059814
968	0.026398	0.027618
969	0.066528	0.039063
970	-0.00885	0.073242
971	0.029449	0.050659
972	0.003357	0.051422
973	-0.008545	-0.022736
974	0.03418	0.006104
975	0.009155	0.061798
976	0.016022	0.028839
977	0.002289	0.091248
978	0.032349	0.015106
979	0.046692	0.0177
980	0.039825	0.09079
981	0.082703	0.014343
982	0.037079	0.063324
983	0.058136	0.053406
984	0.048981	0.066528
985	0.026245	0.059662
986	0.034637	0.031281
987	0.00946	0.050354
988	0.022888	-0.036163
989	0.040588	0.057373
990	0.037537	0.071106
991	0.028839	0.012665
992	0.06073	0.027008
993	-0.006104	-0.036926
994	0.058441	-0.042572
995	0.005646	-0.013275
996	0.02655	-0.030518
997	0.01709	0.0354
998	0.004272	0.007782
999	0.033569	-0.036469
1000	0.014954	0.016327
1001	0.041809	0.011902
1002	0.030823	0.007172
1003	0.02594	-0.028687
1004	0.00885	-0.011292
1005	0.029144	-0.02533
1006	0.028687	0.052948
1007	0.041351	-0.015259
1008	0.038452	0.007935
1009	0.027924	0.020294
1010	0.000916	0.061798
1011	0.005035	0.00885
1012	0.049744	0.026703
1013	-0.003357	0.031433
1014	0.04303	0.04425
1015	0.053711	0.062408
1016	0.034943	0.043793
1017	0.014496	0.010529
1018	0.00824	0.040131
1019	0.030365	0.029755
1020	0.036163	0.087585
1021	0.032196	-0.008392
1022	-0.020599	0.05249
1023	0.020142	0.04715
1024	0.033722	0.084381
1025	-0.00473	0.048981
1026	0.007629	0.008545
1027	-0.00412	0.012817
1028	0.041809	0.013733
1029	0.015106	0.03006
1030	0.020905	-0.003052
1031	0.013733	0.018005
1032	0.004578	0.032654
1033	-0.005798	0.015869
1034	0.00885	0.013123
1035	0.002899	-0.004578
1036	0.028992	0.097809
1037	-0.002899	-0.001221
1038	-0.019531	-0.017395
1039	0.019836	0.093384
1040	-0.00412	0.09201
1041	0.043335	0.001373
1042	0.021667	0.012207
1043	0.02243	-0.024872
1044	0.04715	0.010834
1045	0.025177	0.003967
1046	0.046997	0.08606
1047	0.03067	-0.026093
1048	0.049591	-0.020294
1049	0.044861	0.043793
1050	0.049591	-0.011597
1051	0.026093	0.066071
1052	0.031891	0.093689
1053	0.039063	0.044403
1054	0.019073	0.04425
1055	-0.002899	0.015106
1056	0.010223	0.042877
1057	0.031128	0.079956
1058	0.031738	0.080261
1059	0.00473	0.060883
1060	0.02655	-0.029602
1061	0.027618	0.051117
1062	0.023651	0.024872
1063	0.02655	0.071106
1064	-0.015869	-0.006409
1065	0.003357	0.049286
1066	0.010834	0.00351
1067	-0.002594	0.040588
1068	0.061035	0.011444
1069	0.034485	0.012817
1070	0.037689	-0.004578
1071	0.094757	0.002136
1072	0.002899	0.015717
1073	0.092621	0.005951
1074	0.045776	0.058746
1075	0.057373	0.033569
1076	0.014648	0.081787
1077	-0.011902	-0.029907
1078	0.02243	0.068817
1079	0.009766	-0.00473
1080	0.037384	0.003662
1081	0.052185	0.006409
1082	0.022125	0.047913
1083	0.042877	0.065308
1084	0.035706	0.045624
1085	0.015564	0.050049
1086	0.028687	0.04303
1087	-0.0177	0.001984
1088	0.017853	0.047302
1089	0.005646	0.027008
1090	-0.014801	-0.030518
1091	0.019989	0.058746
1092	-0.003967	0.02121
1093	0.018005	-0.02594
1094	-0.005035	0.046539
1095	-0.013275	0.082245
1096	0.042114	0.070648
1097	-0.015259	0.069275
1098	0.034485	-0.03479
1099	0.035248	0.003357
1100	0.058746	0.044098
1101	0.080261	0.060272
1102	0.019226	0.015106
1103	0.054169	0.016632
1104	0.005341	0.048523
1105	0.019073	-0.038147
1106	0.037537	0.007629
1107	0.041656	0.024414
1108	0.06073	0.084991
1109	0.008545	0.032806
1110	0.038757	0.003052
1111	0.003052	0.051575
1112	0.024414	-0.001373
1113	0.045166	-0.004272
1114	0.001831	0.067444
1115	0.012665	0.009766
1116	0.066071	0.032501
1117	0.071564	0.014191
1118	0.0914	0.042572
1119	0.018005	0.04364
1120	0.083008	-0.052795
1121	0.025482	0.013275
1122	0.005188	-0.004578
1123	0.031891	0.080566
1124	-0.049896	0.012512
1125	-0.015564	-0.017395
1126	-0.002899	0.028687
1127	-0.025482	0.043182
1128	-0.001068	0.039368
1129	-0.039063	-0.001984
1130	0.00824	0.057068
1131	-0.006104	0.0383
1132	-0.021515	0.018463
1133	0.011749	0.020905
1134	-0.00473	0.052338
1135	0.002747	-0.00412
1136	0.010681	0.025482
1137	0.005188	-0.045776
1138	0.0383	-0.031128
1139	-0.02243	0.018311
1140	0.010223	0.021667
1141	0.014954	0.051575
1142	0.003052	0.044098
1143	0.029602	0.000458
1144	0.032349	-0.002441
1145	0.035095	-0.013885
1146	0.050964	0.033264
1147	0.067444	0.023193
1148	0.066986	0.044098
1149	0.022888	0.050201
1150	0.065002	0.002441
1151	0.021515	0.037231
1152	0.006866	0.045471
1153	0.059357	0.049744
1154	0.032349	-0.001373
1155	0.037231	-0.009003
1156	0.039978	0.027618
1157	0.053406	-0.037689
1158	0.051117	0.037994
1159	0.004425	0.002747
1160	0.062256	0.007782
1161	0.007172	0.0383
1162	0.00824	0.016632
1163	0.039368	0.012665
1164	0.023651	0.008392
1165	0.050354	-0.003204
1166	-0.023193	0.02594
1167	-0.002594	-0.018311
1168	0.058289	0.034027
1169	0.044861	-0.013428
1170	0.049286	-0.030212
1171	0.021057	-0.046692
1172	0.046997	-0.00946
1173	0.066528	0.05127
1174	0.052643	0.01236
1175	0.037384	-0.001678
1176	0.017395	0.041351
1177	0.020752	0.016022
1178	0.042877	0.03006
1179	-0.006256	0.041046
1180	0.025635	0.016174
1181	0.013275	0.033264
1182	0.010681	0.06485
1183	0.040894	0.001984
1184	0.011292	-0.005798
1185	0.009918	0.093079
1186	0.011292	0.014648
1187	-0.000763	-0.022736
1188	0.023193	0.025787
1189	-0.016785	0.028992
1190	0.007477	0.003052
1191	0.032959	0.029449
1192	0.012817	-0.019684
1193	0.023346	0.033722
1194	-0.006561	0.017242
1195	0.018616	-0.015564
1196	-0.012817	0.040283
1197	-0.013733	-0.053406
1198	0.027924	0.074463
1199	0.036011	0.024719
1200	0.064545	0.049896
1201	0.021667	0.010223
1202	0.016785	0.02243
1203	0.052948	0.052185
1204	0.040741	0.052032
1205	0.053558	-0.01236
1206	0.014343	0.016937
1207	0.027161	0.006104
1208	0.045929	0.041351
1209	0.007324	0.015411
1210	0.06897	-0.019989
1211	0.064392	-0.021667
1212	0.00351	-0.019531
1213	0.040131	0.029602
1214	0.014343	0.04776
1215	0.054626	0.07309
1216	0.040588	0.074921
1217	0.029144	0.058899
1218	0.027771	0.03006
1219	0.034637	-0.004425
1220	0.018768	0.009613
1221	0.013885	0.069733
1222	0.080872	0.046539
1223	0.066071	0.040283
1224	0.042877	0.024872
1225	0.070953	0.013123
1226	0.026245	0.029144
1227	0.000458	0.002747
1228	0.033875	0.102692
1229	0.041656	-0.008392
1230	0.029907	0.018158
1231	0.022125	0.01297
1232	0.015411	0.023193
1233	0.04364	0.056763
1234	0.018311	0.003052
1235	0.045624	0.023346
1236	0.000153	0.023041
1237	0.036621	0.023956
1238	0.024719	0.054016
1239	0.016022	0.011597
1240	0.018158	0.033569
1241	0.001984	0.013733
1242	-0.009766	-0.013733
1243	0.007019	0.076141
1244	-0.00412	0.074768
1245	0.035553	0.012512
1246	-0.018463	0.053558
1247	0.036163	0.041504
1248	0.043335	0.01297
1249	0.03006	0.0383
1250	0.055237	0.028839
1251	0.020142	0.06073
1252	0.028839	0.027618
1253	0.051117	0.055695
1254	0.029907	0.013733
1255	0.064545	0.025482
1256	0.019379	0.027466
1257	0.040894	0.038605
1258	0.046234	0.025177
1259	0.052185	0.060272
1260	0.052795	0.038605
1261	0.015259	0.037689
1262	0.008698	0.025024
1263	0.044403	0.027924
1264	0.031433	0.049591
1265	0.031738	0.006866
1266	0.055389	0.029907
1267	0.004425	-0.022736
1268	0.024109	0.023193
1269	0.008545	0.02533
1270	0.029297	0.011444
1271	0.009918	0.055847
1272	0.007629	0.00946
1273	0.065613	0.009003
1274	0.016937	0.02121
1275	0.018768	0.015869
1276	0.03067	0.053711
1277	0.009613	0.002136
1278	0.023193	-0.001831
1279	-0.015259	0.016327
1280	0.04303	0.013733
1281	0.04364	0.044403
1282	0.048523	-0.008087
1283	0.074463	0.027771
1284	0.033112	-0.00473
1285	0.04715	-0.010071
1286	0.024567	0.037231
1287	0.046387	0.025024
1288	0.018158	0.050659
1289	-0.003052	-0.011139
1290	0.002441	0.006714
1291	0.019379	0.023041
1292	0.072327	-0.005493
1293	0.042114	0.02533
1294	0.016022	0.015411
1295	0.026093	0.026703
1296	0.014191	0.016937
1297	0.033569	0.013733
1298	0.054016	0.03006
1299	0.023346	0.002899
1300	0.031281	0.03006
1301	0.053711	-0.037384
1302	0.036926	0.010986
1303	0.019684	0.031433
1304	0.059814	0.017853
1305	0.037842	0.018463
1306	0.047302	-0.010529
1307	0.016785	0.034332
1308	-0.028534	-0.011292
1309	0.021515	0.016327
1310	-0.032654	0.021973
1311	0.016022	-0.00351
1312	0.044403	0.039673
1313	-0.012817	0.007172
1314	0.052643	0.003204
1315	0.058441	0.030823
1316	0.085449	-0.001068
1317	0.049438	0.043488
1318	0.059509	0.012665
1319	0.022888	0.009308
1320	-0.000763	0.027618
1321	0.027313	-0.023651
1322	0.011597	0.0383
1323	0.039673	0.024109
1324	0.06134	-0.004272
1325	0.014954	0.019684
1326	0.036926	0.033417
1327	0.039215	0.040131
1328	0.097351	-0.018463
1329	0.047455	0.008698
1330	-0.011902	0.017242
1331	0.045776	-0.01709
1332	0.028381	0.069885
1333	0.013733	-0.003052
1334	0.027924	0.031738
1335	0.037994	-0.007477
1336	0.028381	0.007019
1337	0.019836	0.058746
1338	-0.005188	0.041809
1339	0.040131	0.060272
1340	-0.034027	0.045166
1341	0.029907	0.002747
1342	0.020752	0.052643
1343	-0.010376	0.049133
1344	0.025787	0.061035
1345	-0.002289	0.015259
1346	0.066681	0.013275
1347	-0.000305	0.050201
1348	0.019989	0.005341
1349	0.021515	0.005798
1350	-0.006714	0.042114
1351	0.003357	-0.002289
1352	0.018616	0.027313
1353	-0.029602	0.032349
1354	0.075378	0.055847
1355	0.012054	0.037842
1356	0.028992	-0.059967
1357	0.025635	0.002899
1358	0.041504	-0.032196
1359	0.032806	0.01236
1360	-0.005035	0.00473
1361	0.029297	0.026398
1362	0.010071	0.041656
1363	0.010223	-0.011597
1364	0.019073	0.035248
1365	0.015564	0.05127
1366	0.018768	0.037842
1367	0.022736	0.043488
1368	0.007629	0.042267
1369	0.05249	0.050964
1370	0.007935	0.025635
1371	0.038757	0.046844
1372	0.013733	0.052948
1373	0.045471	0.005798
1374	0.061951	0.035095
1375	0.021667	0.047607
1376	0.029907	0.043945
1377	0.03067	0.07843
1378	0.03418	0.057983
1379	0.002747	0.062714
1380	0.041046	0.02182
1381	0.034332	0.039368
1382	0.037842	0.02121
1383	0.067291	-0.008698
1384	0.00824	0.028534
1385	0.030975	-0.020447
1386	0.03891	-0.008087
1387	0.032806	0.016479
1388	0.04364	-0.021057
1389	0.016174	-0.001373
1390	0.043488	-0.011902
1391	0.03418	-0.015259
1392	-0.007477	-0.005493
1393	0.028381	0.033569
1394	0.024719	0.064392
1395	0.009918	0.036316
1396	0.033417	0.089417
1397	-0.00351	-0.034485
1398	0.065918	0.019379
1399	-0.023041	0.006866
1400	0.038757	0.011749
1401	0.03479	0.048676
1402	0.014954	-0.005646
1403	0.063629	-0.011139
1404	0.031281	0.026398
1405	0.040741	0.017853
1406	0.049896	0.035706
1407	0.057068	0.000458
1408	0.064545	0.018311
1409	-0.003052	-0.05188
1410	0.026703	-0.031128
1411	-0.013123	-0.023193
1412	0.034027	-0.037537
1413	0.027924	-0.012512
1414	0.017242	-0.040283
1415	0.040283	-0.011902
1416	0.016327	-0.007324
1417	0.032501	-0.043488
1418	-0.008392	0.02533
1419	-0.00473	0.008698
1420	-0.002136	0.014191
1421	0.039673	0.013885
1422	0.041656	0.026093
1423	0.050507	0.08255
1424	0.022888	0.050812
1425	0.043488	0.03952
1426	0.042572	0.026398
1427	0.077362	0.014496
1428	0.070648	0.031128
1429	0.107574	0.01709
1430	0.050049	0.031891
1431	0.017395	0.029449
1432	0.04364	0.007935
1433	0.037079	0.03479
1434	0.023804	0.04837
1435	0.041809	0.029144
1436	-0.012665	0.054474
1437	0.029602	-0.004578
1438	0.026398	0.06546
1439	0.005188	0.042419
1440	0.032196	0.008545
1441	0.019531	0.055542
1442	0.018005	0.018005
1443	0.032806	0.03418
1444	-0.021973	0.021362
1445	0.033417	0.110626
1446	0.035706	0.083008
1447	-0.000153	-0.001068
1448	0.014496	-0.007324
1449	0.005035	0.028076
1450	0.037384	0.020752
1451	0.014496	0.027161
1452	0.002747	0.023804
1453	0.003052	0.07782
1454	-0.000153	0.023956
1455	0.025787	0.068817
1456	0.005188	0.06424
1457	0.006714	0.039673
1458	0.018463	0.066833
1459	0.006866	-0.017395
1460	0.048218	0.050812
1461	-0.018768	0.026245
1462	-0.029755	0.016785
1463	-0.003204	0.066681
1464	0.016327	0.04303
1465	0.009308	0.062408
1466	0.03891	0.057831
1467	0.028839	0.035095
1468	0.027618	-0.011597
1469	-0.009155	-0.031128
1470	0.003662	-0.008545
1471	0.024567	0.033875
1472	0.030823	0.02533
1473	0.022583	0.073547
1474	0.035095	0.001984
1475	0.019684	0.040741
1476	0.025787	0.023956
1477	0.045319	0.035248
1478	-0.006409	0.03418
1479	0.030212	0.023346
1480	-0.024872	0.014343
1481	0.02594	0.00885
1482	0.018311	0.039368
1483	0.002747	-0.010376
1484	0.013275	-0.017548
1485	0.01358	0.027008
1486	0.058441	-0.005035
1487	0.071259	0.006866
1488	0.028534	0.042725
1489	0.056458	-0.018921
1490	0.027618	0.045929
1491	0.018768	0.020752
1492	0.034637	0.017853
1493	-0.007629	-0.001221
1494	0.03067	0.021515
1495	0.022125	0.03479
1496	0.044861	0.00473
1497	0.028839	0.008087
1498	0.015869	-0.009308
1499	0.05127	0.030212
1500	0.023346	0.063782
1501	0.045776	0.02182
1502	0.016937	0.033264
1503	0.011139	-0.003357
1504	0.028534	0.004272
1505	0.022736	0.016632
1506	0.071106	0.010681
1507	0.022583	0.014954
1508	0.032806	-0.010071
1509	0.037994	0.010681
1510	-0.00946	-0.018463
1511	0.019836	-0.004578
1512	0.046082	0.038757
1513	0.022125	0.004578
1514	0.024109	0.058289
1515	0.031128	0.011902
1516	0.040436	-0.005341
1517	0.011597	0.028992
1518	0.026398	0.027466
1519	0.080261	0.055542
1520	0.009918	0.0383
1521	0.058441	-0.00824
1522	-0.000916	0.016327
1523	0.016785	0.009766
1524	0.042725	0.052338
1525	0.053711	0.043488
1526	0.020599	0.00824
1527	0.017395	0.033569
1528	-0.010376	-0.012512
1529	0.029449	0.049896
1530	0.024872	0.007782
1531	0.02121	-0.011902
1532	0.017395	0.016785
1533	0.051575	-0.009308
1534	0.025635	0.060425
1535	0.063782	0.063171
1536	0.074615	0.068665
1537	-0.011902	0.074615
1538	0.021362	0.048828
1539	0.041656	0.035553
1540	0.022888	0.014801
1541	0.042267	-0.002594
1542	0.004578	0.014343
1543	0.035095	0.014038
1544	0.027161	0.067444
1545	0.010376	0.013885
1546	0.027771	0.030212
1547	0.037689	0.052338
1548	0.021057	0.103455
1549	0.01358	0.054626
1550	0.001831	0.087891
1551	0.02594	0.104218
1552	0.001984	0.06485
1553	0.044556	0.058594
1554	0.020294	0.0354
1555	0.006409	-0.014343
1556	0.032196	0.030975
1557	-0.011749	-0.013275
1558	-0.000916	-0.018768
1559	-0.001678	-0.000763
1560	0.023804	-0.050354
1561	0.00351	0.01297
1562	-0.005341	0.007172
1563	0.046234	0.01236
1564	0.019379	0.001984
1565	0.002441	-0.028687
1566	0.014191	0.038452
1567	0.018311	0.01358
1568	0.075226	0.018311
1569	0.027161	0.037537
1570	0.054626	-0.010223
1571	0.035553	0.066223
1572	0.010681	0.037689
1573	0.041199	0.009918
1574	0.028076	0.022125
1575	-0.020142	-0.029755
1576	0.033417	0.016785
1577	0.001526	-0.00946
1578	0.014954	-0.018311
1579	0.024872	0.018005
1580	0.032806	-0.044861
1581	0.021362	0.01358
1582	0.044708	0.040436
1583	0.023499	0.007477
1584	0.027161	0.038757
1585	-0.029449	0.035095
1586	0.027924	0.033569
1587	-0.001831	0.050812
1588	0.007019	0.01709
1589	0.048981	0.042877
1590	0.027161	0.024109
1591	0.080261	0.02243
1592	0.048523	0.060577
1593	0.076141	0.019073
1594	0.093384	0.032959
1595	0.024719	0.025482
1596	0.021515	0.025635
1597	0.006866	0.028229
1598	0.048218	0.015564
1599	0.046692	0.063477
1600	0.018005	-0.002594
1601	0.072479	0.030518
1602	0.003815	0.040894
1603	0.031281	0.049286
1604	0.024109	0.054016
1605	0.002747	0.063019
1606	0.040283	0.031433
1607	-0.002136	0.036926
1608	0.042419	0.050507
1609	0.023041	0.08316
1610	0.020142	0.024719
1611	0.039368	0.063019
1612	0.028229	0.044403
1613	0.032349	0.015717
1614	0.00946	0.012054
1615	0.031281	0.02533
1616	0.017853	0.05127
1617	0.001984	0.041962
1618	0.016785	0.024261
1619	-0.032654	0.058136
1620	0.01358	0.012665
1621	0.052795	0.061493
1622	0.025024	0.072479
1623	0.053864	0.046234
1624	0.005188	0.059967
1625	-0.00824	0.049591
1626	0.02594	0.046692
1627	0.020447	0.046997
1628	0.063782	0.037689
1629	-0.004578	0.048523
1630	0.012207	0.051117
1631	0.024109	0.053864
1632	0.023346	0.045929
1633	0.059204	0.028534
1634	-0.005493	0.036163
1635	0.019989	0.00412
1636	0.053253	-0.032501
1637	0.006409	-0.022583
1638	0.059052	-0.040131
1639	0.003052	0.010529
1640	0.011749	0.004272
1641	0.025635	0.027466
1642	0.024567	0.02594
1643	0.039063	-0.01236
1644	0.007324	0.042877
1645	0.034943	-0.013123
1646	0.05188	0.00351
1647	0.023956	0.049896
1648	0.038147	0.02655
1649	0.043488	0.037994
1650	0.014648	-0.013733
1651	0.043335	0.02533
1652	0.005341	0.021667
1653	0.010834	0.02121
1654	0.041199	0.057831
1655	0.014191	0.020905
1656	0.025177	-0.009918
1657	0.027466	0.041809
1658	0.007629	0.010529
1659	0.085907	0.04715
1660	0.00473	0.063629
1661	0.026855	-0.02533
1662	0.032501	0.048218
1663	0.00885	0.046692
1664	0.038147	0.050659
1665	-0.001221	0.042877
1666	0.030823	0.026855
1667	-0.002899	0.023804
1668	0.033722	0.041656
1669	0.008545	0.024261
1670	0.042267	0.03952
1671	0.005798	0.004425
1672	0.010834	0.041809
1673	0.012512	0.027161
1674	0.026855	0.036163
1675	0.026398	0.057068
1676	0.044556	0.003662
1677	0.02182	0.059814
1678	0.036011	0.024719
1679	0.032806	0.030823
1680	-0.006104	0.061646
1681	0.024872	0.062256
1682	0.024567	0.01236
1683	0.005646	-0.006409
1684	0.01709	0.007324
1685	0.032349	0.032043
1686	0.055389	0.01236
1687	0.006104	0.049438
1688	0.031738	0.022278
1689	0.058899	0.030518
1690	0.049286	0.006561
1691	0.051422	0.011292
1692	0.016479	0.056458
1693	0.010529	-0.001984
1694	0.039825	0.047455
1695	0.022583	0.003357
1696	0.019836	0.023041
1697	0.063782	0.052795
1698	0.000763	0.025635
1699	-0.001678	-0.026398
1700	0.043793	0.020752
1701	0.060425	0.01358
1702	0.047913	0.053101
1703	0.033417	0.036163
1704	0.064545	0.017395
1705	0.018005	0.029144
1706	0.048523	0.010834
1707	0.007477	0.034637
1708	0.011749	0.020905
1709	0.034332	0.0383
1710	0.045929	-0.021362
1711	0.031128	-0.007935
1712	0.003204	0.01358
1713	0.022278	0.005035
1714	0.07309	0.010223
1715	0.039673	-0.006561
1716	0.033875	0.047302
1717	-0.002899	0.042725
1718	0.023193	-0.017395
1719	-0.000458	-0.007324
1720	0.015869	0.011292
1721	0.021057	0.018768
1722	-0.001068	0.00885
1723	0.02533	0.010223
1724	0.014343	0.036621
1725	0.039825	0.031281
1726	0.050964	0.033264
1727	0.033112	0.001221
1728	0.060577	0.026245
1729	0.074158	0.027313
1730	0.012207	-0.005798
1731	0.030975	0.041656
1732	-0.016022	0.030365
1733	0.014038	-0.0177
1734	-0.014343	0.041199
1735	0.063934	0.031738
1736	0.027618	0.054626
1737	0.011292	0.001831
1738	0.028381	-0.003815
1739	0.022583	0.059814
1740	0.045319	0.006714
1741	0.045929	0.04837
1742	0.002441	0.014343
1743	0.003204	-0.011749
1744	-0.003662	0.03479
1745	0.009003	0.053406
1746	0.074158	0.038605
1747	0.021362	0.053864
1748	0.021362	0.016785
1749	0.026245	0.04837
1750	0.027924	0.037994
1751	0.010376	0.031128
1752	0.023041	0.045624
1753	0.013733	0.033722
1754	0.005035	0.046844
1755	-0.026703	0.018768
1756	0.040741	-0.003815
1757	-0.045319	0.015259
1758	0.028381	-0.008545
1759	-0.073242	0.013733
1760	-0.022125	0.010529
1761	0.019531	0.046692
1762	0.050354	0.074615
1763	0.052795	0.030823
1764	0.07431	0.042877
1765	0.082092	0.031281
1766	0.10788	0.046387
1767	0.100708	0.049744
1768	0.062561	-0.013123
1769	0.024567	0.041809
1770	0.057526	0.012054
1771	0.030975	0.035706
1772	0.029144	0.00885
1773	0.03418	0.000458
1774	0.026245	0.024872
1775	0.000916	0.02594
1776	0.049438	-0.040436
1777	0.038147	0.024261
1778	0.054474	-0.034332
1779	0.037079	0.041809
1780	0.017548	-0.007477
1781	0.037994	0.014648
1782	0.028229	0
1783	0.030823	0.025635
1784	0.020142	0.045013
1785	-0.020142	0.009766
1786	0.008392	0.025482
1787	0.017548	0.032349
1788	0.005493	0.015411
1789	0.060577	0.020599
1790	-0.00946	0.035706
1791	0.039215	0.023651
1792	0.008392	0.020142
1793	-0.000458	0.021057
1794	0.028076	0.059967
1795	0.045013	0.024719
1796	0.028687	0.016174
1797	0.012817	0.075989
1798	0.019531	0.011749
1799	0.006561	0.026398
1800	0.017853	0.050964
1801	0.050812	0.033722
1802	0.005035	0.068665
1803	0.018005	0.018616
1804	0.030975	0.053406
1805	0.00061	0.017395
1806	0.05722	0.027008
1807	-0.026855	0.02594
1808	0.005035	-0.020294
1809	0.000763	0.073242
1810	-0.015411	0.033264
1811	0.004883	0.032959
1812	0.026398	0.047302
1813	0.052948	0.003967
1814	0.011902	0.046082
1815	0.01358	-0.000305
1816	0.019073	0.033417
1817	0.000153	0.059052
1818	0.053864	0.006256
1819	0.009155	0.023956
1820	0.008087	0.012665
1821	0.030823	0.040894
1822	0.018921	0.028992
1823	0.044861	0.033417
1824	-0.018768	0.040894
1825	0.027313	0.020294
1826	-0.010223	0.037994
1827	-0.002899	0.037231
1828	0.016785	0.04715
1829	0.024719	0.059357
1830	0.036011	0.023193
1831	0.010223	0.054016
1832	0.026245	-0.018921
1833	0.042267	0.044098
1834	0.028687	0.035248
1835	0.043793	0.003204
1836	0.040588	0.049438
1837	0.015411	0.031433
1838	-0.005035	0.070343
1839	-0.007019	0.00946
1840	0.035706	0.040436
1841	-0.002594	0.030823
1842	0.029602	0.041046
1843	0.010834	0.053253
1844	-0.010986	0.043488
1845	0.049286	0.045624
1846	0.035248	0.019989
1847	0.037384	0.018005
1848	0.010986	-0.019531
1849	0.033875	0.030518
1850	0.039215	0.022583
1851	0.041046	0.049438
1852	0.019073	0.006409
1853	0.025482	0.018921
1854	0.019226	0.017395
1855	0.014496	0.036621
1856	-0.007172	-0.004272
1857	0.016785	0.025787
1858	0.001373	0.007324
1859	0.009613	0.00473
1860	0.046387	0.046082
1861	0.051575	0.00824
1862	0.047455	0.034485
1863	0.018311	0.02594
1864	0.041809	0.026398
1865	0.037231	0.032349
1866	0.024719	0.027771
1867	0.018005	0.022736
1868	0.002594	0.015411
1869	0.059662	0.034943
1870	-0.02594	0.038147
1871	-0.003967	0.032959
1872	0.023956	0.047607
1873	0.022736	0.00351
1874	0.044098	0.007172
1875	0.026093	0.030365
1876	0.047455	0.024414
1877	0.017548	0.034485
1878	0.030518	0.010071
1879	0.021362	0.074768
1880	0.030212	0.033417
1881	0.062561	0.010834
1882	0.015411	0.035858
1883	0.038147	0.014648
1884	0.014191	0.027618
1885	0.014343	0.031891
1886	0.056458	0.007935
1887	0.02533	0.031433
1888	0.026703	0.036011
1889	0.034485	0.005341
1890	0.005493	0.002441
1891	0.008087	0.015717
1892	0.035858	0.057526
1893	0.073242	0.007019
1894	0.012207	0.058594
1895	-0.001373	0.032501
1896	0.024567	0.063019
1897	-0.018463	0.025024
1898	0.046082	0.014038
1899	0.027313	0.025024
1900	0.02182	0.003357
1901	0.045013	0.005035
1902	0.013733	0.00946
1903	0.018768	0.006104
1904	0.024261	0.057983
1905	0.029602	0.028687
1906	0.024261	0.045013
1907	0.004425	0.051117
1908	0.007172	0.049438
1909	0.021973	0.045471
1910	0.010071	-0.006866
1911	0.035553	0.045471
1912	-0.014038	0.021973
1913	0.061951	0.01297
1914	0.020905	0.043488
1915	0.070648	-0.012512
1916	0.090179	0.028229
1917	0.049896	0.007324
1918	0.059357	0.009766
1919	0.06073	0.075684
1920	0.041504	0.012665
1921	0.06073	0.026855
1922	0.0177	0.018311
1923	0.004883	-0.000153
1924	0.018463	0.050964
1925	0.023499	0.043793
1926	0.064545	0.03891
1927	0.018005	0.018616
1928	0.019836	0.036926
1929	0.021362	0.023956
1930	-0.03006	0.045776
1931	0.032349	0.048523
1932	-0.004883	0.053253
1933	0.004883	0.011749
1934	0.023804	0.014343
1935	0.000916	-0.000763
1936	0.017548	0.058289
1937	0.016479	0.002136
1938	-0.012665	0.004578
1939	-0.009766	0.042877
1940	-0.027161	0.030365
1941	0.02243	0.071564
1942	-0.006561	0.043793
1943	0.02243	0.02182
1944	0.019836	0.030365
1945	0.006409	-0.005035
1946	0.041656	0.009308
1947	0.011597	0.043945
1948	0.00946	0.035248
1949	0.00351	0.050659
1950	0.065918	-0.027466
1951	0.033875	0.018921
1952	0.026093	0.016174
1953	0.042572	0.048523
1954	-0.006714	0.034332
1955	0.018463	0.022736
1956	0.001678	0.042877
1957	0.011902	0.055237
1958	0.047607	0.009155
1959	0.04364	0.03891
1960	0.045776	-0.006256
1961	0.037537	0.045013
1962	-0.016479	-0.00946
1963	0.029449	0.045776
1964	-0.003204	0.054321
1965	0.045166	0.031738
1966	0.003052	0.044556
1967	0.018311	-0.029602
1968	0.053864	0.023346
1969	0.047913	0.038757
1970	0.062714	-0.015869
1971	0.014191	0.014343
1972	0.053864	0.033875
1973	0.013733	0.032043
1974	0.003204	0.020905
1975	-0.024719	0.00061
1976	0.028534	0.054779
1977	0.039215	0.026855
1978	-0.016174	0.039368
1979	0.00061	0.001373
1980	0.005951	0.032654
1981	0.011292	0.034332
1982	0.043793	0.029602
1983	0.040588	0.035553
1984	0.013428	0.018005
1985	0.033875	0.029602
1986	0.024261	0.026245
1987	0.028076	-0.003052
1988	-0.003204	0.063477
1989	0.056915	0.031433
1990	0.032043	0.031128
1991	0.010681	0.019531
1992	0.039978	0.019684
1993	0.032349	0.056
1994	0.033112	0.014801
1995	0.028076	0.005798
1996	0.010834	0.010376
1997	0.044098	-0.005341
1998	0.03006	0.068817
1999	0.036316	-0.010376
2000	0.048828	0.030975
2001	0.02533	0.019379
2002	0.056152	0.022278
2003	0.008698	0.023193
2004	0.039368	0.025635
2005	0.038147	0.05661
2006	-0.014038	0.054321
2007	0.035095	0.029755
2008	0.069885	0.032196
2009	0.009613	0.011749
2010	0.008698	0.045929
2011	0.012817	0.011444
2012	0.02655	0.011139
2013	0.023651	0.037079
2014	0.018921	0.0354
2015	0.028687	0.034332
2016	0.045929	0.018616
2017	0.043945	0
2018	-0.005035	0.014343
2019	0.029602	0.023499
2020	0.0177	0.046692
2021	0.005798	0.019684
2022	0.049133	0.02121
2023	-0.001068	0.033569
2024	0.013733	0.026703
2025	0.031128	0.039673
2026	-0.011902	0.044403
2027	0.010529	0.02182
2028	0.042114	0.006409
2029	0.024261	0.034332
2030	-0.012207	0.059967
2031	-0.011902	0.02121
2032	0.01709	0.062714
2033	0.018616	-0.017242
2034	0.011444	0.013275
2035	-0.007019	0.020294
2036	-0.004425	0.007629
2037	0.030975	0.046234
2038	0.082245	0.049744
2039	0.040131	0.039368
2040	-0.00946	0.058136
2041	-0.007935	-0.012512
2042	0.015411	0.082092
2043	0.021973	0.038147
2044	0.005341	0.061798
2045	0.022125	0.028229
2046	0.046844	0.013733
2047	-0.011902	0.07019
2048	0.024719	0.018005
2049	0.039063	0.037384
2050	0.011292	0.035706
2051	0.050354	-0.002136
2052	0.031128	0.068512
2053	0.018158	0.027466
2054	0.057831	0.03006
2055	-0.009918	0.016174
2056	0.011292	0.037079
2057	-0.008087	0.01709
2058	-0.045776	0.032654
2059	0.014038	0.00351
2060	0.034485	0.025635
2061	0.069275	0.04837
2062	0.031128	0.029602
2063	-0.000305	0.032501
2064	0.018768	0.061188
2065	0.049744	0.055237
2066	0.037689	0.044556
2067	0.013733	0.002747
2068	0.031433	0.004272
2069	-0.018616	0.087738
2070	0.010529	0.025635
2071	0.042725	0.022888
2072	0.001831	0.040131
2073	0.018768	0.006409
2074	0.027771	0.04425
2075	0.007172	0.00061
2076	0.048676	0.024719
2077	0.027008	-0.002441
2078	0.025024	-0.015411
2079	0.06073	0.015106
2080	-0.006104	0.033112
2081	0.04303	0.046692
2082	0.048523	0.040436
2083	0.027924	0.031433
2084	0.029449	0.0177
2085	0.023956	0.007324
2086	0.052185	0.023804
2087	0.053711	0.062714
2088	0.040741	0.035095
2089	0.050507	0.009613
2090	0.023804	-0.007324
2091	0.056	-0.015411
2092	0.014648	0.062103
2093	-0.024109	-0.018005
2094	0.004578	0.083313
2095	0.016174	0.027618
2096	0.009308	0.036774
2097	0.005035	0.013885
2098	0.04303	0.011902
2099	0.028992	0.00473
2100	0.043182	0.045929
2101	0.033722	0.008392
2102	0.020905	0.0383
2103	0.031738	0.055847
2104	0.023651	0.017853
2105	0.062866	0.005646
2106	0.024719	0.024719
2107	-0.00946	0.002747
2108	0.079803	-0.001221
2109	0.001373	0.036163
2110	0.045624	0.035706
2111	0.039825	0.040283
2112	0.013428	0.030212
2113	0.039063	0.002594
2114	0.018311	0.038147
2115	0.026398	0.0354
2116	0.02655	0.036011
2117	0.031281	0.020752
2118	-0.007935	0.015717
2119	-0.012054	0.028076
2120	0.07782	0.027161
2121	0.00061	0.036774
2122	-0.001221	0.024567
2123	0.032806	0.053406
2124	0.007172	0.009155
2125	0.024414	0.003052
2126	0.045013	0.03006
2127	0.042572	0.027161
2128	0.086975	0.043182
2129	-0.024719	-0.002747
2130	0.010071	0.006409
2131	0.003357	0.046539
2132	0.006409	-0.016937
2133	0.049591	0.0383
2134	0.006714	0.009155
2135	0.036926	0.043945
2136	-0.020294	0.049286
2137	0.008545	0.006714
2138	0.053711	0.023193
2139	-0.011597	0.027924
2140	0.038605	-0.001221
2141	0.015259	0.052185
2142	0.041962	0.017853
2143	0.034027	0.041046
2144	0.024567	0.040131
2145	0.045624	0.028534
2146	-0.005646	0.069427
2147	0.009766	-0.004883
2148	0.013733	0.042419
2149	0.017548	0.012054
2150	0.024719	0.059814
2151	0.010529	0.059357
2152	0.018311	0.008698
2153	0.018463	0.046082
2154	-0.00885	0.014038
2155	0.028992	0.029602
2156	0.001068	0.058136
2157	0.028229	0.00946
2158	0.029144	0.035553
2159	0.031738	0.043335
2160	0.069733	0.020752
2161	-0.015564	0.032043
2162	0.031586	0.027618
2163	0.027618	0.032654
2164	0.019684	0.018005
2165	0.004578	0.002899
2166	0.061951	0.010223
2167	0.014954	0.007629
2168	0.025787	-0.010376
2169	0.014191	-0.007324
2170	0.049896	0.010529
2171	0.052948	0.036621
2172	0.035858	-0.009613
2173	0.054321	0.021057
2174	0.007935	0.013428
2175	0.031586	0.025635
2176	0.017395	0.066833
2177	0.023346	0.011597
2178	0.005035	0.03418
2179	0.048676	0.030212
2180	0.027771	0.016174
2181	0.047607	0.072784
2182	0.030365	0.001068
2183	0.047607	0.034027
2184	0.022736	0.049133
2185	0.042419	0.031128
2186	0.031281	0.056
2187	0.011902	0.037384
2188	0.006561	0.050812
2189	0.022278	0.031586
2190	0.046234	0.018616
2191	-0.014496	0.063782
2192	0.009155	0.050201
2193	0.052338	0.056305
2194	0.023651	0.039063
2195	0.017242	-0.006104
2196	0.052948	0.075073
2197	0.018005	0.036316
2198	0.020752	-0.006561
2199	-0.019073	0.045319
2200	-0.033722	0.006561
2201	0.034485	-0.003967
2202	0.013733	0.0354
2203	0.037231	0.039063
2204	-0.010376	0.00824
2205	0.005035	0.003052
2206	0.02533	0.056458
2207	0.023041	-0.012665
2208	0.018768	0.012512
2209	0.038757	0.00061
2210	0.031586	-0.00946
2211	0.003357	0.028534
2212	-0.007629	0.003815
2213	0.046539	0.028992
2214	0.026703	0.019989
2215	0.06134	0.040283
2216	0.007935	0.049133
2217	0.01358	0.03952
2218	0.029907	-0.002747
2219	0.024872	0.041046
2220	0.050049	0.044861
2221	0.055237	0.032959
2222	-0.001678	0.020905
2223	0.040131	0.025787
2224	0.010376	0.025787
2225	0.052948	0.020142
2226	0.00473	0.035095
2227	0.031128	-0.021667
2228	0.028534	-0.004425
2229	0.038147	0.019073
2230	0.031738	-0.002136
2231	-0.000305	0.024872
2232	0.024261	0.030975
2233	0.034485	0.022278
2234	0.023804	0.013733
2235	0.034027	0.005493
2236	0.048218	0.038605
2237	0.021057	0.009308
2238	0.045929	0.063019
2239	0.046997	0.007172
2240	-0.004578	0.057678
2241	-0.005646	0.025787
2242	0.057983	0.021057
2243	0.03006	0.030365
2244	0.007782	0.006714
2245	0.078125	0.040741
2246	0.015869	-0.001068
2247	0.03479	0.004425
2248	0.031586	0.039825
2249	0.043488	0.008392
2250	0.064087	0.003662
2251	0.025635	0.066071
2252	0.03418	0.037842
2253	0.044556	0.056458
2254	0.0354	0.023651
2255	0.002594	-0.004425
2256	0.016785	0.022125
2257	0.033722	0.030518
2258	0.028687	0.021973
2259	0.014648	0.036774
2260	0.00885	0.034027
2261	0.010529	0.068817
2262	0.04715	0.04425
2263	0.032959	0.03067
2264	0.027618	0.009308
2265	0.05722	0.016632
2266	-0.031891	0.039825
2267	0.00946	0.007324
2268	0.024872	0.058136
2269	0.026093	0.024719
2270	0.033264	0.008545
2271	0.017853	0.050354
2272	-0.003357	0.008545
2273	0.057068	0.045624
2274	0.013275	0.030518
2275	0.022736	0.02243
2276	0.010376	0.025787
2277	0.005035	0.036011
2278	0.040436	-0.024109
2279	-0.002899	0.070038
2280	0.031433	0.015717
2281	0.006714	0.020142
2282	-0.027008	0.039063
2283	0.060577	0.030823
2284	0.0383	0.015869
2285	0.050049	0.029449
2286	0.063782	0.035095
2287	-0.007629	0.028076
2288	0.046082	0.045013
2289	0.015259	0.033417
2290	0.046387	0.010834
2291	0.012512	0.034943
2292	0.028229	-0.010376
2293	0.068512	-0.007324
2294	0.012207	0.045319
2295	0.063934	-0.013733
2296	0.018005	0.054016
2297	-0.005798	0.020599
2298	0.063171	-0.012207
2299	0.063324	-0.004883
2300	0.036621	-0.022125
2301	0.046539	0.034027
2302	0.016022	0.033417
2303	0.029144	-0.000305
2304	0.008392	0.030212
2305	0.019531	-0.00824
2306	0.101471	0.025024
2307	0.049286	0.005493
2308	0.052795	0.002594
2309	-0.005188	0.009613
2310	0.035706	0.010986
2311	0.050812	0.016327
2312	-0.016632	0.00412
2313	0.035706	0.045166
2314	0.010681	0.001221
2315	0.032349	-0.010071
2316	-0.000916	0.029297
2317	-0.025787	-0.018311
2318	0.006866	0.039825
2319	0.019226	-0.01358
2320	0.009308	0.008087
2321	0.002899	0.032501
2322	0.042114	0.009308
2323	0.043335	0.021973
2324	0.036621	0.015869
2325	0.005188	-0.00473
2326	-0.011292	0.042267
2327	0.00946	0.048218
2328	0.029144	0.048065
2329	0.029907	0.015869
2330	0.022125	-0.018921
2331	-0.000458	0.03006
2332	0.014954	0.018005
2333	-0.000153	0.064392
2334	0.018158	0.062103
2335	0.042267	0.002899
2336	0.032349	0.064392
2337	0.017395	0.064697
2338	0.010376	0.06012
2339	0.007019	0.033417
2340	0.027008	0.032501
2341	0.041046	0.056305
2342	-0.022888	-0.007324
2343	0.070496	0.029602
2344	0.010071	0.066986
2345	0.033722	0.043488
2346	-0.00824	0.022583
2347	0.037079	0.031433
2348	0.050812	0.048218
2349	0.014648	0.066223
2350	0.042419	0.055695
2351	0.027618	0.051727
2352	-0.005798	-0.006256
2353	0.012207	0.020447
2354	0.010071	0.064697
2355	0.021515	-0.011139
2356	-0.026245	0.066986
2357	0.080719	-0.018768
2358	0.013885	-0.019379
2359	0.058594	0.058746
2360	0.054321	0.043488
2361	0.075684	0.039215
2362	0.030975	0.019684
2363	0.009155	0.011902
2364	0.006866	0.039215
2365	0.042419	0.023193
2366	0.048828	0.037994
2367	0.069427	0.009613
2368	0.029907	0.017548
2369	-0.004272	0.016327
2370	0.04715	-0.024567
2371	0.011902	0.047913
2372	-0.021667	0.019684
2373	0.009918	0.013733
2374	-0.046997	0.012817
2375	0.029449	-0.004272
2376	0.049896	0.035248
2377	0.022278	0.001984
2378	0.07431	0.026245
2379	0.001984	0.013275
2380	0.05661	0.027008
2381	0.050964	0.042572
2382	0.011444	0.019531
2383	0.022736	0.056915
2384	0.007935	0.013428
2385	0.033722	0.01297
2386	0.052948	-0.014648
2387	0.057373	0.029907
2388	0.050507	0.01297
2389	0.061798	0.011292
2390	0.034943	0.028992
2391	-0.001068	0.020599
2392	0.030975	0.02655
2393	0.000916	0.028229
2394	0.011902	0.020294
2395	0.047607	0.053406
2396	-0.010986	0.03418
2397	0.024109	-0.024109
2398	0.04425	0.00412
2399	0.031891	0.045929
2400	0.012512	0.022888
2401	0.01358	0.034637
2402	-0.017242	0.005035
2403	0.020142	0.068207
2404	0.037231	0.018005
2405	0.037537	0.038452
2406	0.022278	-0.001831
2407	0.030212	0.019531
2408	-0.030365	0.059967
2409	0.053253	0.010071
2410	0.02243	0.065918
2411	0.022278	0.012665
2412	0.068207	0.057678
2413	-0.007324	0.057831
2414	0.012665	0.03891
2415	0.096893	0.056152
2416	0.010529	0.050659
2417	0.073547	0.053864
2418	0.063782	0.040741
2419	0.011139	-0.015259
2420	-0.00061	0.046082
2421	0.006714	0.018158
2422	0.061951	0.064392
2423	-0.032501	0.023499
2424	0.041656	-0.002747
2425	0.037231	0.019531
2426	-0.002594	0.003815
2427	0.03006	0.046082
2428	0.015411	0.046082
2429	-0.010834	0.005951
2430	-0.002747	0.033264
2431	-0.021515	0.007935
2432	0.069733	0.032654
2433	0.033264	0.007935
2434	0.041351	0.041504
2435	0.041809	0.045929
2436	0.023651	0.024719
2437	0.0177	0.043488
2438	0.04303	0.025787
2439	0.034332	0.005035
2440	-0.005798	0.04837
2441	0.010223	0.025024
2442	0.023651	0.020294
2443	-0.018921	0.000305
2444	0.039978	0.030518
2445	0.040283	0.034027
2446	0.100098	0.010986
2447	0.038757	0.022583
2448	0.033569	0.024109
2449	-0.00412	0.077209
2450	0.044861	0.014954
2451	0.03479	0.033417
2452	0.019226	0.053406
2453	0.031433	0.043793
2454	0.007324	0.030518
2455	0.00824	0.033875
2456	0.065308	0.043182
2457	-0.003967	0.05661
2458	0.006409	0.009613
2459	0.042725	0.052185
2460	-0.044708	0.018768
2461	0.000153	0.026093
2462	-0.014801	0.010529
2463	0.061188	0.02594
2464	0.019836	0.048981
2465	0.003052	0.022125
2466	0.01236	0.013733
2467	0.038605	0.018921
2468	0.015564	-0.003815
2469	0.013275	0.021667
2470	0.025024	0.006256
2471	0.031586	0.060883
2472	0.005493	0.017548
2473	0.063171	0.081482
2474	0.032349	0.055237
2475	0.039368	0.039673
2476	0.040894	0.024719
2477	-0.000763	0.016479
2478	0.027466	0.03067
2479	-0.005188	0.04303
2480	0.056763	0.020142
2481	0.012512	0.027618
2482	0.035858	-0.005341
2483	0.022278	0.041199
2484	0.001526	-0.001221
2485	0.021515	0.028381
2486	0.007172	0.014191
2487	0.029297	0.021362
2488	0.042267	0.001984
2489	-0.000458	0.009155
2490	0.036621	0.037384
2491	-0.012054	0.016022
2492	0.072327	0.023956
2493	0.034332	0.052032
2494	0.057068	0.021362
2495	0.046997	0.027924
2496	-0.000153	0.021973
2497	0.021057	0.018158
2498	0.010223	0.036621
2499	0.018158	0.049591
2500	0.02121	0.014343
2501	0.027161	0.001221
2502	0.017548	0.023956
2503	0.039215	0.049286
2504	0.009918	0.011749
2505	0.032501	0.018768
2506	0.022736	0.025635
2507	-0.010529	0.010071
2508	0.009613	-0.004425
2509	0.045471	0.044098
2510	0.018616	0.032196
2511	0.057068	0.046387
2512	0.033417	0.019073
2513	0.047607	0.001373
2514	0.048828	0.023804
2515	0.013123	0.007629
2516	0.037231	0.015106
2517	0.014954	0.06958
2518	0.061035	0.025482
2519	0.039825	0.024567
2520	0.02594	-0.006256
2521	0.059814	0.014343
2522	0.020599	0.033112
2523	0.034027	-0.005798
2524	0.036469	0.018311
2525	-0.008698	-0.000458
2526	0.016785	0.032654
2527	0.00824	0.022125
2528	0.039978	0.00061
2529	0.027924	0.00061
2530	0.017853	0.000305
2531	0.064392	0.026855
2532	0.01709	0.006104
2533	0.040436	-0.018005
2534	-0.00824	0.028839
2535	-0.010529	-0.000763
2536	0.049286	0.026245
2537	-0.013123	0.023499
2538	0.04425	0.010986
2539	0.01297	0.053253
2540	0.019379	0.009308
2541	-0.002899	0.026703
2542	-0.013428	0.013885
2543	0.006409	0.045013
2544	0.025482	0.05661
2545	0.031891	0.0383
2546	0.017548	0.027771
2547	0.011749	-0.012207
2548	0.015259	0.059357
2549	0.023804	-0.031128
2550	-0.023499	0.038605
2551	0.019531	0.037231
2552	0.026245	0.035095
2553	0.028534	0.036163
2554	0.036316	-0.011444
2555	0.010223	0.054169
2556	-0.003204	0.018921
2557	0.019836	0.043335
2558	0.043182	0.013885
2559	0.033112	0.016632
2560	0.033112	0.024109
2561	0.03479	-0.000153
2562	0.068665	0.025787
2563	0.012665	0.000763
2564	0.052795	0.005188
2565	-0.022888	0.037537
2566	-0.012512	0.012817
2567	0.021667	-0.004883
2568	-0.014954	0.008545
2569	0.015411	0.006409
2570	0.035706	0.031433
2571	0.03479	0.016785
2572	0.051422	0.034485
2573	-0.010376	-0.001373
2574	0.033417	0.037842
2575	0.023193	0.015259
2576	0.023346	0.030518
2577	0.029907	0.023956
2578	0.005798	-0.013733
2579	0.010223	0.038757
2580	-0.017853	0.045013
2581	0.046234	-0.033264
2582	0.028381	0.029297
2583	0.046234	0.043793
2584	-0.00946	0.018768
2585	0.010986	0.016022
2586	0.050659	0.033264
2587	0.024872	0.018463
2588	0.029297	-0.000916
2589	-0.005188	0.063934
2590	0.034943	0.016785
2591	-0.004272	0.05249
2592	0.021667	0.01297
2593	-0.012054	0.051422
2594	-0.030518	0.027466
2595	0.10788	0.012817
2596	-0.044708	0.046692
2597	0.020294	-0.005188
2598	0.018311	0.027618
2599	0.009918	0.023956
2600	0.039215	-0.004425
2601	0.022125	0.033264
2602	0.044403	0.00351
2603	0.016632	0.035858
2604	0.012817	0.006561
2605	0.045929	0.044556
2606	-0.001221	0.046997
2607	0.081329	0.00412
2608	0.020447	0.043488
2609	-0.00351	-0.002289
2610	-0.007324	0.031433
2611	0.03891	0.031433
2612	0.055389	0.061646
2613	0.02243	0.036011
2614	0.055695	0.018005
2615	0.047607	0.022278
2616	0.005035	-0.033112
2617	0.026855	0.013428
2618	0.003967	0.041656
2619	0.041351	0.002289
2620	-0.020599	0.02243
2621	-0.037537	0.004578
2622	-0.001984	0.027618
2623	0.0177	0.026855
2624	0.024414	0.018921
2625	-0.03418	0.039063
2626	0.005646	0.005798
2627	0.04364	0.056
2628	0.002289	-0.010071
2629	0.036163	0.003815
2630	0.010071	0.038605
2631	0.045319	0.012817
2632	0.005035	0.043335
2633	0.025482	0.004425
2634	0.025635	0.047607
2635	0.015411	0.02121
2636	-0.00061	0.005035
2637	0.012665	0.010529
2638	0.087433	0.031891
2639	0.056915	0.019379
2640	0.024261	0.003357
2641	0.021057	0.037537
2642	0.041504	0.057831
2643	0.023804	0.033417
2644	0.015106	0.007935
2645	0.017548	0.015411
2646	0.010986	0.044708
2647	0.034485	0.020142
2648	0.03891	0.039368
2649	0.015106	0.03067
2650	0.034027	0.001221
2651	0.00351	0.02243
2652	0.018311	0.002441
2653	0.019379	0.02533
2654	-0.010071	0.048676
2655	0.046997	0.037689
2656	0.010986	0.043335
2657	0.03891	-0.006256
2658	0.026703	0.059204
2659	-0.024872	0.043793
2660	0.035858	0.015411
2661	-0.000305	0.03418
2662	0.0383	0.020142
2663	0.024567	0.034027
2664	0.041351	0.002899
2665	0.02182	0.033417
2666	-0.008545	0.040588
2667	0.102386	-0.015869
2668	0.006561	0.028381
2669	0.01358	0.001526
2670	0.034637	0.021057
2671	0.007782	0.041656
2672	0.046539	0.036774
2673	0.036316	0.039673
2674	0.010376	0.012665
2675	0.045013	-0.018768
2676	0.028687	0.005493
2677	0.015259	0.035248
2678	0.020142	0.030975
2679	0.027313	0.035248
2680	0.021515	0.036163
2681	-0.016327	-0.002136
2682	0.098877	0.052032
2683	0.0177	0.028534
2684	0.043335	0.010223
2685	0.009308	0.058441
2686	0.032196	-0.010986
2687	0.02655	0.048218
2688	0.005188	0.005188
2689	0.052338	0.009918
2690	0.008087	0.023193
2691	0.04364	0.00824
2692	0.027618	0.044861
2693	0.041199	0.044708
2694	0.046234	0.01297
2695	0.037994	0.021667
2696	0.081329	0.013123
2697	0.007019	0.045929
2698	0.030823	0.029907
2699	0.028992	0.01358
2700	-0.016327	0.035248
2701	0.047455	-0.002136
2702	0.050354	0.028839
2703	0.054016	0.009308
2704	0.022278	0.005646
2705	-0.001221	-0.007935
2706	0.05188	0.018768
2707	0.024109	0.045929
2708	0.042267	-0.006409
2709	0.05249	0.0177
2710	-0.059509	0.03952
2711	0.02243	0.033417
2712	-0.011597	0.0354
2713	0.0737	0.02243
2714	0.021057	0.034637
2715	0.033722	0.000916
2716	0.019836	0.035858
2717	0.02533	0.004425
2718	0.032959	0.009308
2719	0.03479	0.066528
2720	0.046692	0.009613
2721	0.043793	0.013733
2722	0.010071	0.015411
2723	0.030518	0.010529
2724	0.028381	0.040588
2725	0.041809	0.009613
2726	-0.027618	0.051727
2727	0.043488	0.018005
2728	0.061493	0.037994
2729	-0.040894	-0.001221
2730	0.010986	0.02182
2731	0.039825	0.033569
2732	0.057983	-0.003662
2733	0.023804	0.045624
2734	0.018921	-0.001678
2735	0.025635	0.050049
2736	0.017395	0.00824
2737	0.058136	0.018616
2738	0.015869	0.039215
2739	0.04364	0.001221
2740	0.04364	-0.002899
2741	0.043488	0.028992
2742	0.013428	0.01709
2743	0.032959	0.034027
2744	0.047302	0.026855
2745	0.032196	0.037994
2746	-0.021362	-0.003052
2747	0.001984	0.029755
2748	0.023804	-0.013123
2749	0.054321	0.016632
2750	0.031586	0.060577
2751	-0.002594	0.00473
2752	0.041046	0.009766
2753	0.005951	0.03067
2754	0.023499	0.019531
2755	0.034027	0.061798
2756	0.039368	-0.007172
2757	0.001526	0.03067
2758	-0.005341	0.005035
2759	0.039673	-0.005035
2760	0.001373	0.029144
2761	0.018158	0.002899
2762	0.050507	0.039215
2763	0.011749	0.005493
2764	0.066833	0.026855
2765	0.044556	0.016785
2766	0.037384	0.066376
2767	0.045471	0.074158
2768	0.093842	0.0177
2769	0.028534	0.043182
2770	0.006256	0.00885
2771	0.035095	0.00061
2772	0.042114	0.047913
2773	0.031891	-0.003967
2774	0.040588	0.006714
2775	0.022583	0.040131
2776	0.069733	-0.027313
2777	0.032196	0.033569
2778	0.037689	0.00946
2779	0.049744	0.012512
2780	0.002747	0.004883
2781	0.089264	0.016174
2782	0.022888	0.054169
2783	0.032501	0.010834
2784	0.004578	0.054016
2785	0.028839	0.016327
2786	0.020294	0.037994
2787	0.002899	0.010834
2788	0.031281	0.031281
2789	0.038147	0.025177
2790	0.049896	-0.006104
2791	0.057831	0.040283
2792	0.001984	0.024567
2793	0.046997	0.046082
2794	0.020752	0.031128
2795	0.038147	0.001373
2796	0.037079	0.043488
2797	0.035858	0.010376
2798	0.058594	-0.004272
2799	-0.005951	0.014038
2800	0.050964	0.021667
2801	0.030212	0.03418
2802	0.018463	-0.027618
2803	0.023499	0.0354
2804	0.032349	0.016174
2805	0.061951	0.030365
2806	0.047607	0.030518
2807	0.008087	-0.007019
2808	0.045624	0.059509
2809	0.033722	0.001373
2810	0.005493	0.016327
2811	0.029907	0.084381
2812	0.026855	0.024567
2813	0.031433	0.041046
2814	-0.023651	0.023651
2815	0.05249	0.049438
2816	-0.003204	0.04776
2817	0.043335	-0.010529
2818	0.026398	0.075378
2819	-0.015717	0.001526
2820	0.047455	0.069122
2821	-0.014801	0.019379
2822	0.028839	0.040283
2823	0.001526	0.018768
2824	0.00351	0.032806
2825	0.012817	0.036011
2826	0.026245	0.03418
2827	0.036163	0.00351
2828	0.049438	-0.003967
2829	0.04425	0.00946
2830	0.010834	0.006714
2831	0.002136	-0.005341
2832	0.037689	0.027161
2833	0.014191	0.012665
2834	0.010834	-0.007172
2835	-0.005646	0.036011
2836	0.053101	0.013733
2837	0.021362	0.025787
2838	0.038757	0.006561
2839	0.062866	0.037689
2840	0.008087	0.018005
2841	0.058289	-0.00885
2842	0.04837	0.014343
2843	0.025787	0.018005
2844	0.042267	0.067749
2845	0.020752	0.00885
2846	0.041504	0.015564
2847	-0.016022	0.014496
2848	0.023651	0.015564
2849	0.018311	0.002441
2850	0.035858	-0.003357
2851	0.015411	0.03479
2852	0.029297	0.048676
2853	0.04303	0.007935
2854	0.005951	0.048523
2855	-0.001373	0.010376
2856	0.035858	0.029755
2857	0.072937	0.02533
2858	0.04303	-0.003357
2859	0.007019	-0.024109
2860	0.025024	0.02182
2861	0.00061	0.032654
2862	0.018768	0.008698
2863	0.04303	0.011597
2864	0.019379	0.046387
2865	0.030518	0.032654
2866	0.031433	0.050201
2867	0.022125	0.000763
2868	0.02655	0.018158
2869	0.028839	0.029602
2870	0.026245	0.019836
2871	0.014038	0.018005
2872	0.056458	0.037231
2873	0.029449	0.012665
2874	0.04425	0.000153
2875	0.043793	0.037384
2876	0.012512	0.018005
2877	0.027618	0.031891
2878	0.000305	0.027618
2879	0.033875	0.027466
2880	-0.018768	-0.001678
2881	0.017853	-0.011444
2882	0.037842	0.020599
2883	0.014648	-0.004578
2884	0.041656	-0.020142
2885	0.01236	0.028839
2886	0.035095	0.031586
2887	0.072021	0.03891
2888	0.039368	0.046387
2889	0.038452	0.028992
2890	-0.006104	0.032806
2891	0.035553	0.023041
2892	0.008087	0.024414
2893	0.026855	0.01709
2894	0.028992	0.03418
2895	0.002594	0.017548
2896	0.028687	0.021973
2897	-0.015564	0.023804
2898	0.014954	0.012054
2899	-0.000305	0.030975
2900	0.039673	-0.000916
2901	0.058441	0.066681
2902	-0.007477	0.005798
2903	0.047455	0.023346
2904	0.012817	0.023804
2905	0.062256	-0.020447
2906	0.05249	0.039825
2907	0.023193	-0.011139
2908	0.029144	0.008698
2909	0.007172	0.037537
2910	0.019531	0.027313
2911	0.008392	0.030518
2912	0.04425	0.034943
2913	0.009308	0.012207
2914	0.029907	0.025787
2915	0.025482	0.018921
2916	-0.004883	-0.010834
2917	0.039673	0.022583
2918	0.044403	0.051575
2919	0.00885	0.015259
2920	0.052643	0.055389
2921	0.003357	0.042419
2922	0.025482	0.026855
2923	0.021362	0.037079
2924	0.023499	0.034943
2925	0.005646	0.032196
2926	0.050507	0.009155
2927	0.024414	0.015564
2928	0.014191	0.012817
2929	0.032806	0.029144
2930	0.047302	-0.003662
2931	0.00946	0.009766
2932	0.048523	0.028839
2933	0.006104	0.046387
2934	0.021667	0.058441
2935	0.023346	0.056152
2936	0.053864	0.002594
2937	0.04303	0.021515
2938	0.001221	-0.008087
2939	0.018616	0.028687
2940	0.026398	0.035095
2941	0.067902	0.010376
2942	0.012665	0.028687
2943	0.014191	0.03067
2944	0.042419	0.024261
2945	-0.009766	0.031891
2946	0.062866	0.031433
2947	0.020752	0.06012
2948	0.037384	-0.02182
2949	0.012054	0.046234
2950	0.032349	0.033264
2951	0.032806	0.034027
2952	0.018311	-0.006866
2953	0.024261	0.014954
2954	0.016632	0.029755
2955	0.03952	0.012054
2956	0.036621	-0.016174
2957	-0.032349	-0.00351
2958	0.064392	0.045624
2959	0.00824	0.045929
2960	0.020294	0.013428
2961	0.04837	-0.003815
2962	0.035553	-0.03006
2963	0.006866	0.061188
2964	-0.007935	0.051727
2965	0.05127	0.032196
2966	0.021973	0.05188
2967	0.051422	0.003967
2968	0.016632	0.030365
2969	0.007477	-0.012207
2970	0.042267	0.017395
2971	0.009308	0.048981
2972	0.054932	0.042419
2973	0.0383	0.035858
2974	0.010376	0.017242
2975	0.036163	0.061798
2976	0.006104	0.030518
2977	0.019379	0.052795
2978	-0.009003	0.029144
2979	0.010376	0.010986
2980	0.0383	0.026703
2981	0.000763	0.054932
2982	-0.00061	0.080566
2983	-0.018921	-0.000153
2984	0.041351	0.028839
2985	-0.00412	0.030823
2986	0.059204	0.080566
2987	0.036774	0.037231
2988	-0.006256	0.024109
2989	0.049133	0.068665
2990	-0.005493	0.018463
2991	0.028839	0.025024
2992	-0.017548	0.056152
2993	0.030518	0.033569
2994	0.00061	0.06073
2995	0.012054	0.02655
2996	0.007935	0.091858
2997	-0.004425	0.05127
2998	0.020752	0.049133
2999	-0.015564	0.062866
3000	0.011749	-0.000305
3001	-0.007935	0.030975
3002	0.026398	0.00351
3003	0.015106	0.037994
3004	0.055084	0.0383
3005	-0.003357	0.054016
3006	0.050812	0.015717
3007	0.067139	0.012207
3008	0.032043	0.00824
3009	0.041809	0.014191
3010	-0.002594	0.054169
3011	0.035553	0.014801
3012	0.028992	0.051117
3013	0.02182	-0.003204
3014	0.022278	0.02533
3015	0.023651	0.047607
3016	0.026398	-0.011444
3017	0.018921	0.022583
3018	0.021515	0.033569
3019	-0.004883	0.0177
3020	0.014648	0.008087
3021	0.044556	0.03067
3022	0.005951	0.007629
3023	0.036621	0.07782
3024	0.020142	0.027313
3025	0.02121	0.032501
3026	0.015717	0.035706
3027	-0.000916	0.006104
3028	0.031128	-0.022736
3029	0.019684	0.046387
3030	0.021057	0.023041
3031	0.030212	0.05249
3032	0.054474	0.01236
3033	0.069733	0.003052
3034	0.035248	-0.000458
3035	0.04837	0.010071
3036	0.001678	-0.01297
3037	0.031281	-0.010986
3038	0.039215	0.090179
3039	0.037384	0.005341
3040	-0.007019	0.00824
3041	0.0177	0.050507
3042	0.020752	-0.001831
3043	0.02121	0.04776
3044	0.034485	-0.020905
3045	0.036316	0.05188
3046	0.025482	0.008087
3047	0.03479	-0.004272
3048	-0.034943	-0.02243
3049	-0.003815	0.028534
3050	-0.003357	0.038452
3051	0.03479	0.052795
3052	0.024567	0.032501
3053	-0.001526	-0.009613
3054	0.049133	0.027771
3055	0.022125	-0.006561
3056	0.03479	0.033264
3057	0.025635	0.054016
3058	0.036926	0.00946
3059	0.040283	0.023346
3060	0.001068	-0.002747
3061	0.020447	0.047302
3062	0.035553	0.03479
3063	0.077667	0.006714
3064	0.018463	0.041504
3065	0.046539	0.000458
3066	0.061951	-0.001678
3067	0.006561	0.054016
3068	0.014954	0.011902
3069	0.035858	0.072632
3070	0.02182	0.019226
3071	0.044098	0.022888
3072	0.031738	-0.004578
3073	0.009155	0.041504
3074	0.000763	0.039825
3075	0.059052	0.017242
3076	0.025635	0.032654
3077	0.029602	0.033112
3078	0.045624	0.043488
3079	0.005646	0.031433
3080	0.031281	0.015564
3081	-0.008698	0.028534
3082	0.062561	0.034332
3083	0.003052	0.08606
3084	0.026245	-0.001984
3085	0.026093	0.03006
3086	0.020447	-0.014191
3087	0.045776	0.014496
3088	0.016937	0.025482
3089	0.026093	0.017395
3090	0.020447	0.014191
3091	-0.002594	0.017853
3092	0.001221	0.062561
3093	0.01358	0.063782
3094	0.025177	0.015106
3095	0.016937	0.02182
3096	0.032654	0.005646
3097	0.066833	0.01709
3098	0.015564	0.015411
3099	0.045013	0.036163
3100	0.011292	0.016022
3101	0.021515	0.022125
3102	0.045166	0.046692
3103	0.005188	-0.010834
3104	0.043793	0.060425
3105	-0.00473	0.056915
3106	0.033112	0.038757
3107	-0.002747	0.043488
3108	0.061951	0.00412
3109	0.064545	0.03418
3110	0.024414	-0.007324
3111	0.033112	0.037537
3112	0.028992	0.033569
3113	-0.000305	0.043182
3114	-0.000153	0.006714
3115	-0.000458	0.012207
3116	0.039368	0.045319
3117	-0.005646	0.024261
3118	0.050659	0.049133
3119	0.007172	0.04303
3120	-0.00412	0.046234
3121	0.064392	0.010529
3122	0.029907	0.027008
3123	0.030518	0.003967
3124	-0.022888	0.031738
3125	0.052643	0.046234
3126	0.012054	0.037079
3127	0.031128	-0.021362
3128	0.02655	0.057678
3129	0.028076	0.038147
3130	0.017242	0.02243
3131	0.039673	-0.006104
3132	0.007629	0.000305
3133	0.019073	0.030365
3134	0.005951	0.042267
3135	0.036774	0.02533
3136	0.036011	0.03006
3137	0.034027	0.0177
3138	0.018158	0.019226
3139	0.002899	0.03891
3140	0.053864	0.07782
3141	0.033264	0.028839
3142	0.053253	0.014038
3143	0.008392	0.009613
3144	0.026855	0.012512
3145	0.04715	0.012817
3146	0.029602	0.012054
3147	0.017853	0.025787
3148	0.029297	0.039368
3149	0.042419	0.053101
3150	-0.011444	0.039215
3151	0.016327	-0.027771
3152	-0.009766	0.056
3153	-0.003204	0.025177
3154	0.016174	0.043488
3155	0.001984	0.0177
3156	0.002594	-0.029144
3157	0.007172	0.035858
3158	-0.002441	0.015411
3159	0.006409	0.066223
3160	-0.023804	0.048676
3161	0.031128	0.013428
3162	0.015411	0.045929
3163	0.005798	0.009918
3164	0.006714	0.027161
3165	0.019379	0.027924
3166	0.024872	0.038757
3167	-0.002289	0.044861
3168	0.026245	0.011597
3169	0.030365	0.075226
3170	-0.001068	0.002747
3171	0.000916	0.014496
3172	0.006561	0.016937
3173	0.04837	0.043793
3174	0.011597	0.064545
3175	0.06485	0.010223
3176	-0.013123	0.046387
3177	0.007324	0.023499
3178	0.031128	0.04425
3179	-0.01297	0.050964
3180	0.014343	0.033875
3181	0.02243	0.054474
3182	0.005035	-0.021973
3183	0.027618	0.049591
3184	0.019989	-0.007172
3185	0.040283	0.039978
3186	-0.000916	-0.006561
3187	0.027924	-0.007172
3188	0.039063	0.086975
3189	-0.002747	0.037231
3190	0.0383	0.037384
3191	0.032654	0.029602
3192	0.046082	0.037231
3193	0.002441	0.049591
3194	0.027008	0.011292
3195	0.020447	0.036926
3196	-0.003052	0.025787
3197	0.025635	0.048523
3198	-0.014038	0.040741
3199	0.025482	0.041809
3200	0.025177	0.061493
3201	0.043335	0.02243
3202	-0.032501	0.080261
3203	0.008698	-0.022125
3204	0.042725	0.058899
3205	0.019073	0.00885
3206	0.03891	0.026093
3207	0.009918	0.016479
3208	0.042267	0.059357
3209	0.036774	0.023499
3210	0.035553	0.027618
3211	0.115051	0.052948
3212	0.008698	0.032654
3213	0.024872	0.035248
3214	0.019836	0.022736
3215	0.028687	0.052948
3216	0.021667	0.033875
3217	0.009308	0.060425
3218	0.057526	0.041656
3219	-0.001221	0.019531
3220	0.043793	0.029144
3221	0.003357	0.019226
3222	0.053253	0.000305
3223	0.040588	0.084381
3224	0.043793	0.021057
3225	0.04715	0.024567
3226	0.065918	0.003204
3227	0.05188	0.00885
3228	-0.019684	0.030823
3229	0.049591	-0.002289
3230	-0.05127	0.015411
3231	0.025787	0.002441
3232	0.037537	0.020905
3233	-0.001221	0.036163
3234	0.057068	-0.011444
3235	0.004272	0.03418
3236	0.036621	0.017853
3237	0.015259	0.052643
3238	0.0354	0.002289
3239	0.035706	0.039673
3240	0.020142	0.047302
3241	0.047913	0.011139
3242	-0.001678	-0.000458
3243	0.032806	0.049744
3244	0.028381	0.053253
3245	-0.000916	0.021515
3246	0.027771	-0.052032
3247	0.013885	-0.017242
3248	0.045471	0.05188
3249	0.02182	0.019989
3250	0.036621	0.03006
3251	-0.005188	0.039978
3252	0.009613	0.011292
3253	0.052185	0.02655
3254	-0.00412	0.017242
3255	0.016785	0.030518
3256	0.018311	0.036774
3257	0.03418	0.004578
3258	0.038605	0.095825
3259	0.040894	-0.033569
3260	0.01709	-0.000458
3261	-0.00061	0.081787
3262	0.040283	-0.021667
3263	0.021973	0.069885
3264	0.037842	-0.000916
3265	0.051575	0.028076
3266	-0.00412	0.007019
3267	0.016632	0.013275
3268	0.029907	0.034637
3269	0.047302	0.055847
3270	0.021362	0.065308
3271	0.004425	-0.000153
3272	0.005341	0.011749
3273	0.015411	-0.007019
3274	0.049438	-0.007172
3275	0.014343	0.063324
3276	0.030365	0.050354
3277	0.02182	0.025635
3278	0.003357	0.010529
3279	0.020905	0.07309
3280	0.005646	0.001068
3281	0.059662	0.018616
3282	-0.011444	0.040588
3283	0.076752	0.020752
3284	0.062256	0.056
3285	0.049438	-0.013733
3286	0.031281	0.015259
3287	-0.028687	0.024872
3288	-0.000153	0.029449
3289	0.034332	0.060577
3290	0.023346	-0.008545
3291	0.018463	0.013123
3292	-0.012817	-0.000916
3293	0.076904	0.028229
3294	-0.009613	0.028839
3295	0.019684	0.028229
3296	0.01358	0.038757
3297	-0.001678	0.03006
3298	0.021057	0.033112
3299	0.03952	0.054474
3300	0.057068	0.034943
3301	0.005035	0.055084
3302	0.020905	-0.000153
3303	0.015411	0.030365
3304	0.020752	-0.009003
3305	0.027008	0.015869
3306	0.002136	0.077667
3307	0.001221	0.06546
3308	0.023651	0.018616
3309	0.013123	0.015869
3310	0.002289	0.040283
3311	0.013428	0.028687
3312	0.032806	0.046387
3313	0.042725	0.037231
3314	-0.018311	0.016174
3315	0.004578	0.045166
3316	-0.000458	0.005341
3317	0.012512	0.023346
3318	-0.013733	0.046387
3319	0.056152	0.096588
3320	0.007477	0.063477
3321	0.007629	-0.004272
3322	0.027618	0.08194
3323	-0.009003	0.032043
3324	0.037994	0.0177
3325	0.021973	0.040741
3326	0.02182	0.020142
3327	-0.036011	0.084229
3328	0.057678	0.021515
3329	0.071411	-0.005493
3330	-0.032501	0.055542
3331	0.043488	0.012817
3332	0.010681	0.058441
3333	0.005798	0.003662
3334	0.065155	0.006561
3335	-0.005341	0.092621
3336	0.031891	0.060883
3337	0.022583	0.00885
3338	-0.009613	0.004272
3339	0.023346	0.050659
3340	0.035248	0.007629
3341	0.045471	0.057068
3342	-0.001373	0.063782
3343	0.012512	0.033722
3344	0.039063	0.043182
3345	0.015259	0.00351
3346	0.043945	0.031738
3347	0.042419	0.023956
3348	0.036926	-0.001831
3349	0.014038	0.061188
3350	-0.006866	0.049133
3351	0.016174	0.010223
3352	0.035858	0.033417
3353	0.031586	0.030975
3354	0.025787	0.026093
3355	0.014954	0.01709
3356	-0.00885	0.022583
3357	0.011444	0.029449
3358	0.056	0.007172
3359	-0.007477	0.046234
3360	-0.010071	0.02533
3361	0.018768	0.091248
3362	0.059814	0.04303
3363	0.023804	0.047455
3364	-0.003815	0.015411
3365	0.04303	0.019836
3366	-0.006866	0.062408
3367	0.025635	0.034637
3368	0.043793	0.044556
3369	0.0177	0.005035
3370	0.041809	0.019684
3371	0.007935	0.046082
3372	0.054321	0.032806
3373	-0.020447	0.074768
3374	0.002441	0.022888
3375	0.012665	0.069427
3376	0.006714	0.045929
3377	0.063171	0.073547
3378	0.02243	0.031281
3379	0.055084	-0.014191
3380	0.022888	0.010834
3381	0.0354	-0.012512
3382	0.013428	0.027924
3383	0.022583	0.025787
3384	0.018616	0.026245
3385	0.043945	0.027924
3386	0.026245	-0.026245
3387	0.037079	0.025635
3388	-0.012207	0.04715
3389	0.008545	0.053253
3390	-0.014954	0.059204
3391	0.035858	0.066681
3392	0.030365	-0.001221
3393	0.030823	-0.03067
3394	0.017395	-0.087128
3395	-0.006714	-0.022125
3396	0.030975	0.050964
3397	0.010834	0.065002
3398	0.014648	0.000763
3399	0.041351	0.027771
3400	-0.004883	0.028687
3401	-0.009918	0.079803
3402	-0.004425	0.039368
3403	0.034637	-0.009613
3404	0.001984	0.038452
3405	0.03952	0.011139
3406	0.014191	0.03952
3407	0.009308	-0.00946
3408	0.086212	0.023651
3409	-0.007477	0.069733
3410	0.066986	0.023651
3411	-0.001831	0.048981
3412	-0.023804	0.037842
3413	0.026855	0.037842
3414	0.046692	0.052032
3415	0.021667	0.065918
3416	-0.011292	0.005493
3417	-0.02121	0.024567
3418	-0.037537	0.034332
3419	0.029297	0.058136
3420	0.061798	0.046539
3421	-0.016479	0.046539
3422	0.052032	0.077057
3423	0.016022	0.125732
3424	0.019684	0.023499
3425	0.026245	0.062408
3426	0.008392	0.028687
3427	0.066681	0.04425
3428	-0.045013	0.031433
3429	0.048981	0.015259
3430	-0.028534	0.025024
3431	0.016632	-0.030212
3432	0.026855	0.046844
3433	0.030518	0.0737
3434	0.046539	0.038757
3435	0.019531	0.018616
3436	-0.003662	-0.009918
3437	0.022583	0.003815
3438	0.01236	0.030823
3439	0.016327	0.021973
3440	0.002441	0.036163
3441	0.028076	-0.005188
3442	0.015869	0.045624
3443	0.038757	0.020294
3444	0.021667	0.070038
3445	0.039825	0.05188
3446	0.029449	-0.016632
3447	0.003052	0.079956
3448	0.007782	0.025635
3449	0.010071	0.056915
3450	0.038147	0.00946
3451	0.042725	0.029602
3452	0.037079	0.080719
3453	-0.035706	-0.003357
3454	-0.031281	0.021057
3455	0.02121	0.006104
3456	0.027161	0.028992
3457	0.030518	0.046082
3458	0.051575	0.04364
3459	-0.001526	0.045471
3460	0.048065	0.039825
3461	-0.005188	0.059967
3462	0.041199	0.048065
3463	0.045319	0.047607
3464	0.010529	0.021667
3465	0.019226	0.041046
3466	0.030823	0.051727
3467	0.006866	-0.014191
3468	-0.004578	-0.012665
3469	-0.006409	0.02121
3470	0.060425	0.057678
3471	0.001068	0.035858
3472	0.028076	0.002289
3473	0.00351	0.018768
3474	0.006256	0.026245
3475	0.041504	0.050964
3476	0.00824	0.001678
3477	0.01709	0.054626
3478	0.019379	0.026245
3479	0.027618	-0.009766
3480	0.028076	0.080414
3481	0.016479	0.056763
3482	0.038147	0.049591
3483	0.010681	0.016785
3484	0.037842	0.019684
3485	-0.010529	0.041504
3486	0.029755	-0.004425
3487	0.024719	0.050659
3488	0.025024	0.023193
3489	0.024109	0.016327
3490	0.019989	-0.01236
3491	0.044556	-0.010529
3492	0.02594	0.016174
3493	0.037231	0.010529
3494	0.009155	0.050659
3495	0.052795	0.038147
3496	0.0737	0.073853
3497	0.027924	-0.028076
3498	0.053253	0.020599
3499	0.032806	0.018311
3500	0.056305	0.00473
3501	0.042877	0.052032
3502	0.042114	0.005035
3503	0.035095	0.024261
3504	0.037384	0.007477
3505	0.043335	0.032501
3506	0.019073	0.024414
3507	0.066833	-0.010986
3508	0.027313	0.032654
3509	0.041656	-0.066833
3510	-0.01709	0.090332
3511	0.028534	-0.010223
3512	0.036469	0.004272
3513	0.014343	-0.001221
3514	0.039825	0.019226
3515	0.017395	0.036316
3516	0.039063	0.025177
3517	0.006866	0.039673
3518	0.027924	0.010071
3519	0.005646	0.018005
3520	0.021667	0.028229
3521	0.050659	0.026245
3522	0.025482	0.029297
3523	0.019836	0.053864
3524	0.020142	0.005341
3525	0.029602	0.024719
3526	0.022583	0.040588
3527	0.023346	-0.000153
3528	0.050507	0.023956
3529	0.025635	0.058746
3530	0.028381	-0.016632
3531	0.047455	0.044098
3532	-0.014191	-0.007019
3533	0.031738	0.012817
3534	0.021362	0.027924
3535	0.040894	0.019226
3536	0.008087	0.04303
3537	-0.006866	0.054321
3538	0.033112	0.025024
3539	0.009613	0.087738
3540	0.03418	-0.037384
3541	0.010681	0.081024
3542	0.014496	0.005188
3543	0.004272	0.005798
3544	-0.012665	0.019073
3545	0.030212	0.018311
3546	0.002289	0.010834
3547	0.051727	0.040588
3548	0.007019	0.045319
3549	0.011902	0.014343
3550	-0.03067	0.020905
3551	0.018768	0.018158
3552	0.014343	0.027161
3553	0.010986	0.036926
3554	0.050659	0.061646
3555	0.008087	0.021362
3556	0.027008	0.029602
3557	-0.003662	0.081787
3558	-0.021362	0.019989
3559	0.0177	0.032959
3560	0.016022	0.048065
3561	0.038147	0.010834
3562	0.010986	0.020447
3563	-0.004425	0.012665
3564	0.026245	0.006561
3565	0.00473	0.007935
3566	0.04303	0.040436
3567	0.009918	0.016327
3568	0.036469	0.011749
3569	-0.02533	0.049438
3570	0.017395	0.017395
3571	-0.006104	0.031586
3572	0.036011	0.02243
3573	0.025024	0.049438
3574	0.024567	-0.010681
3575	0.051422	0.034027
3576	0.009766	0.023804
3577	0.053406	0.005493
3578	-0.03067	0.011902
3579	0.011444	0.005188
3580	0.056	0.069885
3581	0.041046	-0.004272
3582	0.025635	0.065308
3583	0.014343	0.036621
3584	0.048218	0.059357
3585	-0.001678	0.020142
3586	0.03067	0.043335
3587	0.010834	0.032959
3588	0.039368	-0.021362
3589	0.034027	0.032654
3590	0.001831	0.00351
3591	0.015869	-0.0177
3592	-0.00824	0.037537
3593	-0.001526	0.044708
3594	0.057678	0.042114
3595	0.041962	0.016022
3596	0.029297	0.06546
3597	0.043182	0.018463
3598	0.024567	-0.009003
3599	-0.004425	0.035706
3600	0.005341	0.047455
3601	-0.011902	0.042725
3602	0.006256	0.029907
3603	0.0177	0.045013
3604	0.009918	-0.025635
3605	-0.003662	0.026703
3606	0.032806	-0.00061
3607	-0.00061	0.033569
3608	-0.018921	0.047455
3609	0.029755	0.029297
3610	0.01709	0.039368
3611	0.017242	0.017548
3612	-0.023956	0.068207
3613	-0.006256	0.023956
3614	0.030975	0.054016
3615	0.046997	0.006104
3616	0.050659	0.032043
3617	0.005493	0.008392
3618	0.050507	0.012207
3619	-0.02655	0.011749
3620	0.045013	0.022278
3621	0.037537	0.024261
3622	0.023041	-0.00946
3623	0.044098	0.04837
3624	0.072784	0.025177
3625	0.072784	0.02655
3626	0.032959	0.026245
3627	0.054169	0.028687
3628	-0.013428	-0.000916
3629	-0.000153	0.043488
3630	0.05188	0.047913
3631	0.027466	0.013428
3632	0.029449	0.043488
3633	0.024261	0.028076
3634	0.059204	0.036621
3635	0.010681	0.031281
3636	0.043182	0.03479
3637	-0.00885	0.04303
3638	-0.020294	0.014648
3639	0.052185	0.066833
3640	-0.004883	0.033722
3641	0.025482	0.062866
3642	-0.016174	-0.02243
3643	0.064392	0.015717
3644	0.003052	0.020599
3645	0.015717	0.019531
3646	0.022583	0.038452
3647	0.03067	-0.005951
3648	0.039063	0.04715
3649	0.005951	-0.035858
3650	0.056	0.074005
3651	0.049591	0.028992
3652	0.028992	0.047913
3653	-0.01358	0.025787
3654	-0.005188	0.007782
3655	0.019226	0.050507
3656	0.013885	0.025024
3657	0.037994	0.016632
3658	0.003815	0.016479
3659	0.020599	0.041809
3660	-0.016785	0.051575
3661	0.025787	-0.007324
3662	0.007935	0.041046
3663	0.024719	0.018005
3664	0.049438	0.040283
3665	0.009918	0.009003
3666	0.032806	0.02594
3667	0.049591	0.027008
3668	0.012512	0.018616
3669	0.014038	0.034332
3670	0.022125	0.054626
3671	0.026245	0.072632
3672	0.041046	-0.006104
3673	0.035095	0.034637
3674	0.007629	0.01709
3675	0.033264	-0.00824
3676	0.032196	0.042725
3677	0.017242	0.028534
3678	0.026093	0.077362
3679	0.039063	-0.005798
3680	0.063171	0.018311
3681	0.008698	0.018921
3682	0.04364	0.000763
3683	-0.037689	0.029907
3684	0.05722	0.010681
3685	0.010986	0.007782
3686	0.046844	0.022888
3687	0.022125	0.031433
3688	-0.013123	-0.006256
3689	0.014191	0.00351
3690	0.021973	0.04776
3691	0.040741	0.014801
3692	0.025024	0.072021
3693	0.05722	0.014648
3694	0.028229	0.024719
3695	0.017853	0.011444
3696	-0.013123	0.057526
3697	0.022736	0.067444
3698	0.059662	-0.021515
3699	0.000458	0.042267
3700	0.037384	-0.005646
3701	0.03006	0.070648
3702	-0.00412	0.003662
3703	0.019531	0.053101
3704	0.040894	0.028534
3705	0.020905	0.012512
3706	0.021057	0.042267
3707	0.053253	-0.009918
3708	-0.013428	0.013733
3709	0.029907	-0.016327
3710	0.058441	0.032043
3711	0.002899	0.019226
3712	0.031433	0.022583
3713	0.017853	0.02655
3714	0.016937	-0.009003
3715	0.030212	-0.01358
3716	0.011749	-0.001373
3717	0.0177	0.062408
3718	-0.010223	0.014496
3719	0.050507	0.038605
3720	0.015564	0.03418
3721	0.035706	0.019989
3722	0.030823	0.069885
3723	0.036163	0.017242
3724	0.021362	0.093994
3725	0.058136	0.022278
3726	0.018463	0.046082
3727	0.077057	0.034943
3728	0.023499	0.06485
3729	0.035706	-0.016479
3730	0.041656	0.060425
3731	-0.00824	0.006866
3732	0.045166	0.013733
3733	0.042114	-0.016327
3734	0.040894	0.031128
3735	0.02533	0.062866
3736	0.055542	0.05249
3737	0.03891	0.032654
3738	0.014954	0.007324
3739	0.019226	0.018616
3740	0.03067	0.011597
3741	0.039825	-0.01709
3742	0.035248	0.0383
3743	0.005493	-0.005798
3744	-0.000153	0.026245
3745	0.015564	0.071106
3746	0.011444	0.049133
3747	0.02655	-0.005035
3748	0.012512	0.059967
3749	0.027466	0.046082
3750	0.038757	0.05722
3751	-0.001068	0.024109
3752	0.023956	0.006866
3753	-0.014496	0.063019
3754	0.02243	-0.002594
3755	0.023499	0.024261
3756	0.034943	0.044556
3757	0.028076	0.024109
3758	0.037079	0.013123
3759	-0.009003	0.025635
3760	0.005188	0.0177
3761	0.049896	0.002899
3762	0.027924	0.019379
3763	0.0354	0.002441
3764	0.037231	0.048218
3765	0.025177	0.004578
3766	0.052032	0.007935
3767	0.000305	0.001526
3768	0.066376	0.021515
3769	0.040588	0.015869
3770	0.059967	-0.005951
3771	0.037231	0.034943
3772	0.025177	0.014648
3773	0.01236	0.019989
3774	0.010681	-0.027618
3775	0.053864	0.010529
3776	0.024872	0.013275
3777	0.04303	0.025787
3778	0.039825	0.034332
3779	-0.011292	0.004578
3780	0.027618	0.053253
3781	0.018616	0.016022
3782	0.0354	0.01236
3783	-0.01236	0.019073
3784	0.032349	0.012512
3785	0.024261	0.023956
3786	0.076752	0.032196
3787	0.013885	0.04364
3788	0.016327	0.016327
3789	0.022736	0.012054
3790	0.03891	0.009308
3791	0.019073	0.064087
3792	0.053864	0.029602
3793	0.04715	0.036469
3794	0.030975	0.01709
3795	0.046692	0.002594
3796	0.014648	0.012665
3797	0.027771	0.001831
3798	0.003357	-0.003815
3799	0.013733	0.005646
3800	0.046234	0.037994
3801	0.048065	-0.015869
3802	0.02655	0.067444
3803	0.036469	0.050201
3804	0.036926	0.017395
3805	0.002441	-0.011749
3806	0.030365	0.043182
3807	0.033722	0.023956
3808	0.062103	0.022125
3809	-0.030365	0.041809
3810	0.04425	0.035858
3811	0.024719	0.032043
3812	0.010681	0.023651
3813	0.014648	0.031891
3814	0.045471	0.019226
3815	0.022736	0.023499
3816	0.019226	0.001221
3817	0.030212	0.071411
3818	-0.004578	0.007782
3819	0.033875	0.050354
3820	0.012054	0.012207
3821	-0.024261	-0.03067
3822	0.013123	0.016479
3823	0.016327	0.010376
3824	0.014954	0.037994
3825	0.038147	0.009155
3826	0.036621	0.054016
3827	0.009918	-0.001526
3828	0.033569	0.032349
3829	0.023956	-0.024567
3830	0.053864	0.030975
3831	0.014801	0.045776
3832	0.062256	0.026093
3833	0.053406	0.068665
3834	0.012817	-0.005035
3835	0.023346	0.011292
3836	-0.010986	-0.02243
3837	0.024109	0.03006
3838	0.011292	0.027466
3839	0.036621	-0.009766
3840	-0.00824	0.051117
3841	0.037537	0.010071
3842	0.030212	0.027924
3843	-0.009155	0.028381
3844	0.026093	0.041351
3845	0.07431	0.034332
3846	0.016174	0.008545
3847	0.008392	-0.002594
3848	0.049438	0.064392
3849	-0.029297	0.024261
3850	0.043793	0.000916
3851	0.019836	0.021057
3852	0.024719	0.011292
3853	0.015259	0.049133
3854	-0.018921	-0.027008
3855	0.010986	0.029907
3856	-0.002594	0.029907
3857	0.040436	0.0177
3858	0.005188	0.045471
3859	0.033112	0.012817
3860	0.051727	0.036621
3861	0.019073	0.013123
3862	0.049744	0.024719
3863	0.028687	-0.013428
3864	0.053558	0.007935
3865	-0.010071	0.013733
3866	0.023956	0.004425
3867	-0.011749	0.051727
3868	0.02655	-0.017242
3869	0.029449	-0.003204
3870	0.034027	-0.006409
3871	0.038147	0.039825
3872	0.018463	0.005341
3873	0.028076	0.041351
3874	-0.008392	0.016022
3875	0.048523	-0.005341
3876	-0.001068	0.029907
3877	0.019836	-0.014801
3878	-0.001984	0.071564
3879	0.002289	0.001678
3880	0.022736	0.036163
3881	0.011902	-0.002136
3882	0.037231	0.041504
3883	0.035248	0.036774
3884	0.033264	0.030975
3885	-0.015411	0.04303
3886	0.018463	0.007782
3887	0.025787	0.019989
3888	0.015106	0.024414
3889	0.058899	0.019989
3890	-0.00061	0.007172
3891	0.05249	0.055084
3892	-0.0177	0.044556
3893	0.015717	0.02655
3894	0.041504	0.063171
3895	0.026703	-0.004425
3896	0.018921	0.027313
3897	0.03006	0.026855
3898	0.014343	0.062714
3899	0.01236	-0.018311
3900	0.048523	0.049133
3901	0.040131	0.040131
3902	0.029602	-0.010834
3903	0.02533	0.028381
3904	0.005798	0.003662
3905	0.013275	0.003204
3906	0.024719	0.050201
3907	0.044708	0.006256
3908	0.028076	0.043488
3909	0.057068	0.051727
3910	0.007172	0.011444
3911	0.073395	0.01358
3912	0.002899	0.020752
3913	0.030823	-0.010071
3914	0.042267	0.039215
3915	0.007477	-0.005951
3916	0.076294	0.030212
3917	0.023041	0.014496
3918	0.018005	0.00946
3919	0.046692	0.039063
3920	0.041351	-0.007782
3921	0.015717	0.016174
3922	-0.006104	-0.05661
3923	0.041656	0.050507
3924	0.033112	0.004272
3925	0.019226	0.038605
3926	0.019073	0.023346
3927	0.044556	0.014954
3928	0.027313	0.035248
3929	0.004883	0.026245
3930	0.015717	0.054626
3931	-0.018921	-0.000458
3932	0.043182	0.03418
3933	0.034637	0.054016
3934	0.046082	0.02182
3935	-0.006866	0.005951
3936	0.028992	-0.005798
3937	0.002289	0.036621
3938	0.006714	-0.015869
3939	0.016022	0.052643
3940	-0.043488	0.020142
3941	0.046082	0.024109
3942	0.007935	0.023193
3943	0.015564	0.010223
3944	-0.00412	0.022278
3945	0.041809	0.005951
3946	0.029755	0.02655
3947	0.002289	0.002594
3948	0.099182	0.052948
3949	0.002136	0.02655
3950	0.028839	0.045319
3951	0.04364	-0.002747
3952	-0.004272	0.024414
3953	0.020599	0.04303
3954	0.040588	0.022583
3955	0.01358	0.035858
3956	0.00946	-0.018616
3957	0.022125	0.022888
3958	0.010834	0.00061
3959	0.065308	0.007477
3960	0.026855	0.018158
3961	0.059509	-0.023804
3962	0.057526	0.019836
3963	-0.016327	0.022736
3964	0.029907	0.018463
3965	0.005035	0.008392
3966	0.037384	0.073395
3967	-0.004578	0.019836
3968	0.022125	0.041504
3969	0.012054	0.011292
3970	0.054169	0.03006
3971	-0.012665	0.033569
3972	0.008545	0.003815
3973	0.022125	0.052338
3974	0.004883	-0.020752
3975	0.024261	0.048676
3976	0.001831	0.035706
3977	0.028076	0.071106
3978	-0.008698	0.009308
3979	0.040283	0.057373
3980	0.000305	0.019379
3981	0.008698	0.056305
3982	0.009155	0.019531
3983	0.001526	0.032043
3984	0.014954	0.024872
3985	0.023499	0.032196
3986	0.04303	0.061646
3987	0.035706	-0.008392
3988	0.055695	0.000458
3989	0.005646	0.004425
3990	0.04364	0.017853
3991	0.009308	-0.000763
3992	0.036621	0.007477
3993	0.068512	0.051727
3994	0.062256	0.010529
3995	0.046844	0.052185
3996	0.00824	0.019531
3997	0.063477	0.02121
3998	-0.015411	0.026703
3999	0.027466	0.010376
4000	0.02655	0.010529
4001	0.050812	0.016479
4002	0.028534	0.029449
4003	0.031281	0.01358
4004	0.036011	0.043488
4005	-0.013275	0.010529
4006	0.008545	0.035858
4007	0.007935	0.035553
4008	0.061951	0.027313
4009	0.002899	0.036469
4010	0.055237	0.034332
4011	-0.01297	0.052185
4012	-0.001221	-0.009918
4013	0.021667	0.025787
4014	-0.005035	0.010529
4015	0.037384	0.03952
4016	0.005951	0.023041
4017	0.052948	-0.006256
4018	-0.012817	0.043182
4019	0.065765	0.005798
4020	0.01709	0.03418
4021	0.035706	0.028381
4022	0.017395	0.037537
4023	-0.011139	0.010986
4024	0.026855	-0.006866
4025	0.001221	0.001678
4026	0.043182	-0.002594
4027	0.025024	0.054169
4028	0.046387	0.00824
4029	0.037231	0.011292
4030	0.023346	0.027924
4031	0.063782	0.040741
4032	0.006256	0.010834
4033	0.046997	-0.003204
4034	0.026245	0.039825
4035	0.071869	0.005798
4036	0.02182	0.043945
4037	0.030518	-0.014648
4038	0.028839	0.025635
4039	0.001373	-0.023346
4040	0.0383	-0.007019
4041	0.032806	0.017242
4042	0.036469	0.027618
4043	0.037689	0.056
4044	0.047302	0.023651
4045	-0.003357	0.021057
4046	0.04364	0.008392
4047	0.0354	0.037079
4048	0.032196	-0.000305
4049	0.013275	0.033264
4050	0.01297	0.007324
4051	0.047455	0.056
4052	0.006409	0.026855
4053	0.038757	0.028992
4054	-0.015411	-0.000153
4055	0.022888	0.009308
4056	0.005035	0.014343
4057	0.019073	0.001373
4058	0.039673	0.037231
4059	0.028839	0.016327
4060	0.054474	0.031433
4061	0.011749	-0.002899
4062	0.05249	0.007019
4063	0.015564	0.008392
4064	0.026245	-0.008698
4065	0.007172	0.019226
4066	0.019073	0.023346
4067	0.023346	0.037842
4068	0.029755	-0.021057
4069	0.03006	0.027924
4070	0.01358	0.003815
4071	0.029907	0.026398
4072	-0.012665	0.001068
4073	0.071411	0.00946
4074	0.000305	0.026703
4075	0.02182	0.017853
4076	0.011139	0.033569
4077	0.038147	0.0383
4078	0.05249	0.029449
4079	0.036926	0.005035
4080	0.009613	0.016327
4081	0.035858	-0.006104
4082	0.064392	0.031128
4083	0.009155	0.040741
4084	0.043488	0.06546
4085	0.015869	0.051117
4086	0.011139	-0.005341
4087	0.002594	0.020447
4088	-0.00061	0.001373
4089	0.026855	0.062561
4090	0.028534	0.013275
4091	0.050049	0.016937
4092	-0.033417	0.039825
4093	0.038452	0.006409
4094	-0.005035	-0.005341
4095	0.057526	0.013733
4096	0.023499	0.054626
4097	0.039368	0.00412
4098	0.03891	0.016327
4099	0.015106	-0.018311
4100	0.058441	0.011597
4101	0.020905	0.008545
4102	0.031433	-0.020142
4103	0.021362	0.035706
4104	0.036926	-0.028992
4105	0.016937	0.067902
4106	0.025024	-0.014191
4107	0.061035	0.023041
4108	0.031891	0.020142
4109	0.054626	0.019684
4110	0.028687	0.026398
4111	0.031738	0.00473
4112	0.027161	0.034637
4113	0.024261	0.016174
4114	0.055389	0.02655
4115	-0.018768	0.012665
4116	0.014191	0.031433
4117	-0.006104	-0.010986
4118	0.04837	0.045624
4119	-0.019073	0.050812
4120	0.00946	0.006104
4121	-0.00473	0.039978
4122	0.011749	0.022278
4123	0.026703	0.042419
4124	0.01236	0.042725
4125	0.005951	0.034943
4126	0.007629	0.046692
4127	0.016022	0.031891
4128	0.007019	-0.005493
4129	0.018616	0.022125
4130	0.005035	0.0354
4131	0.032806	0.019684
4132	0.013885	0.037689
4133	0.014343	0.014343
4134	0.024872	0.02243
4135	0.014496	0.019226
4136	0.040436	-0.011444
4137	-0.009003	0.003357
4138	0.05249	0.009918
4139	0.018158	0.02655
4140	0.052185	0.001984
4141	0.051575	0.037994
4142	0.034027	-0.046692
4143	0.036011	0.031891
4144	0.024567	0.018005
4145	0.070496	0.057831
4146	0.028229	0.034485
4147	0.048065	0.020905
4148	0.037689	0.022583
4149	0.029602	0.015717
4150	0.027008	0.036163
4151	-0.006714	-0.016327
4152	0.028076	0.043945
4153	-0.01297	0.026703
4154	0.062408	0.0354
4155	0.023499	0.013123
4156	0.040283	0.045013
4157	-0.005493	0.069885
4158	0.014191	0.034332
4159	-0.02655	0.054932
4160	0.005646	0.015411
4161	-0.013733	0.037994
4162	-0.013733	0.009003
4163	0.037079	0.046539
4164	0.024872	0.017853
4165	0.029602	0.038757
4166	0.014954	0.013428
4167	0.042572	0.011139
4168	0.030518	0.008545
4169	0.048828	0.019531
4170	0.006409	0.037384
4171	0.07843	-0.023956
4172	0.033264	0.036774
4173	0.049591	0.009155
4174	0.026703	-0.010223
4175	0.002747	-0.001068
4176	0.018616	0.021667
4177	-0.007172	0.044556
4178	0.033875	0.034943
4179	0.022278	0.015717
4180	0.069122	0.011292
4181	0.030823	0.005188
4182	0.048218	0.038147
4183	0.08606	0.043793
4184	-0.003357	0.010834
4185	0.054779	0.032043
4186	0.014801	0.041199
4187	0.040436	0.032959
4188	0.023346	0.028992
4189	0.002747	0.020752
4190	0.005493	0.048218
4191	0.032043	0.006256
4192	-0.000153	0.033722
4193	0.04837	0.024109
4194	0.016022	0.048828
4195	0.003662	-0.002441
4196	0.050812	0.029907
4197	-0.025024	-0.027771
4198	0.029907	0.005341
4199	0.046082	0.010986
4200	0.027313	0.029144
4201	0.031891	0.018616
4202	0.043945	0.065765
4203	0.027618	0.049744
4204	0.011749	0.020142
4205	0.050812	0.023956
4206	0.010986	0.035095
4207	0.006256	0.028839
4208	0.04303	0.023041
4209	0.032043	0.012817
4210	0.028992	0.018616
4211	0.021057	0.015564
4212	0.068817	0.03891
4213	-0.001831	0.01709
4214	0.058441	0.005341
4215	0.024414	0.046997
4216	0.068817	0.008698
4217	0.025787	0.058594
4218	0.046082	-0.02182
4219	0.011292	0.025177
4220	0.019836	0.006256
4221	0.03891	0.028687
4222	0.030975	0.019531
4223	0.072174	0.056152
4224	0.003967	0.055389
4225	0.035706	0.046692
4226	0.00824	0.050659
4227	0.040741	-0.032654
4228	0.031738	0.046692
4229	0.034027	0.030823
4230	0.065155	0.056763
4231	0.019836	0.061035
4232	0.038452	0.058594
4233	0.003357	0.013733
4234	0.0383	-0.010223
4235	0.019379	0.035553
4236	0.020905	0.005646
4237	0.044708	0.050049
4238	-0.002136	0.032043
4239	0.028839	0.02533
4240	-0.001373	0.030518
4241	0.079193	0.034943
4242	-0.019379	0.011749
4243	0.111694	-0.006714
4244	0.018463	0.018921
4245	0.037842	-0.03067
4246	0.038147	0.009918
4247	0.025177	-0.001068
4248	0.017242	0.026093
4249	-0.006104	0.013733
4250	0.020599	0.024261
4251	-0.032043	0.021362
4252	0.002747	0.040894
4253	0.020294	0.063934
4254	0.033112	0.027924
4255	-0.011597	0.043335
4256	0.015106	0.03891
4257	-0.001678	0.019684
4258	-0.000305	-0.006714
4259	0.049896	0.052643
4260	-0.012207	0.031891
4261	0.032349	0.041809
4262	-0.014191	0.064087
4263	0.036621	0.023956
4264	-0.042725	0.027008
4265	-0.007172	0.009613
4266	0.019836	0.05188
4267	0.043488	-0.007172
4268	0.012817	0.044403
4269	-0.007782	0.02121
4270	0.041046	0.01297
4271	-0.015564	0.020294
4272	0.053558	-0.013428
4273	-0.002899	0.026093
4274	0.053558	-0.000763
4275	0.050507	0.002899
4276	0.015259	-0.008087
4277	0.029755	0.019836
4278	0.019684	-0.023499
4279	0.03891	0.009155
4280	0.011444	0.010834
4281	-0.018921	0.003052
4282	0.051422	0.018768
4283	0.046082	-0.003967
4284	0.015106	0.045166
4285	0.037537	0.003815
4286	0.03479	0.043945
4287	0.022583	-0.016937
4288	0.043793	0.028534
4289	0.001068	-0.010376
4290	0.041199	-0.059662
4291	0.018158	0.018005
4292	0.021667	0.019073
4293	0.037231	0.052795
4294	0.008087	0.02655
4295	0.011597	0.039215
4296	0.038147	0.029449
4297	0.037537	0.028687
4298	0.024719	0.006256
4299	-0.002594	0.031586
4300	-0.025635	0.025482
4301	0.06134	0.010834
4302	-0.046844	0.032349
4303	0.018463	0.000305
4304	0.021973	0.014954
4305	0.019073	0.02182
4306	0.033875	0.069122
4307	-0.008087	0.015717
4308	0.071106	0.022125
4309	0.00473	0.010986
4310	0.065155	0.027771
4311	-0.001984	0.022583
4312	0.061493	0.018005
4313	0.018158	0.04715
4314	0.064697	0.024414
4315	0.036926	0.023499
4316	-0.005188	0.021973
4317	0.060577	0.049591
4318	-0.008545	-0.01709
4319	0.013885	0.006409
4320	0.026703	0.048218
4321	0.034943	0
4322	0.061646	-0.002594
4323	0.034943	0.02655
4324	0.082855	0.079803
4325	0.038757	-0.001831
4326	0.049591	0.022125
4327	-0.000916	-0.000305
4328	0.01709	0.031738
4329	0.032043	0.029144
4330	0.041046	0.072784
4331	0.063019	0.031586
4332	0.024414	0.034027
4333	-0.006104	0.02594
4334	0.009613	0.008698
4335	0.005035	0.025177
4336	0.033875	0.037384
4337	0.030518	0.07782
4338	0.052185	-0.006561
4339	0.052795	-0.006256
4340	0.027771	0.018921
4341	0.046387	0.004425
4342	0.00885	0.014648
4343	0.053101	-0.026093
4344	0.023499	0.015564
4345	0.040588	0.005188
4346	0.028381	0.014801
4347	0.028534	-0.000916
4348	0.032196	0.016022
4349	-0.007172	0.018463
4350	0.013733	0.013123
4351	-0.00824	0.046997
4352	0.03891	0.026093
4353	0.049591	0.066681
4354	0.041656	-0.008698
4355	0.023499	0.033875
4356	0.009918	-0.02655
4357	0.054321	0.040283
4358	0.004425	0.028229
4359	0.014343	0.054321
4360	-0.005951	0.048828
4361	-0.009613	0.021362
4362	-0.029602	0.041809
4363	0.018616	0.007782
4364	0.031281	0.093384
4365	0.016785	-0.00061
4366	-0.015564	0.061493
4367	0.018616	0.00824
4368	0.044403	0.060577
4369	0.077667	0.016632
4370	0.020447	0.031738
4371	0.010529	0.041199
4372	0.022125	0.004578
4373	0.014801	0.059204
4374	0.009308	0.00061
4375	0.037689	0.020142
4376	0.018768	0.014191
4377	0.019989	0.023041
4378	0.008392	-0.010071
4379	0.024414	-0.020752
4380	-0.006561	0.036316
4381	0.021057	0.028076
4382	0.001984	-0.000763
4383	0.025635	-0.000763
4384	0.058136	0.008545
4385	0.038147	0.022125
4386	0.014343	0.032196
4387	0.025635	0.014191
4388	0.026093	0.05661
4389	0.003204	0.009003
4390	0.074615	0.041046
4391	0.015411	0.014496
4392	0.035858	0.001831
4393	-0.017395	0.056
4394	0.04303	0.046692
4395	-0.018005	0.042267
4396	-0.005951	0.057526
4397	-0.006561	0.06134
4398	0.036774	0.024414
4399	0.014038	0.03891
4400	0.011902	0.015564
4401	0.02594	0.026093
4402	-0.073242	0.027618
4403	0.068207	0.007172
4404	-0.02243	0.029144
4405	0.053864	-0.007782
4406	0.04303	0.039215
4407	0.060577	-0.014648
4408	0.030518	-0.007629
4409	-0.001678	0.05722
4410	-0.003052	0.026093
4411	-0.007629	0.03418
4412	0.048828	0.040436
4413	0.056305	0.00824
4414	0.043945	0.020599
4415	-0.0177	0.023651
4416	0.04776	0.041046
4417	-0.016785	0.029907
4418	0.037384	0.024414
4419	0.05249	0.076904
4420	0.071716	0.03006
4421	-0.002136	0.06424
4422	-0.00351	0.039978
4423	0.025635	0.097961
4424	-0.00412	-0.001221
4425	0.039063	0.005493
4426	0.026855	0.002289
4427	0.003967	0.006866
4428	0.036469	0.035553
4429	0.06012	0.02243
4430	0.010376	0.101624
4431	0.039673	0.030518
4432	0.009003	0.062561
4433	0.046539	-0.00946
4434	0.036774	0.003815
4435	0.009613	0.030365
4436	0.003967	0.018311
4437	0.011902	0.066986
4438	0.054626	-0.03067
4439	0.015564	0.027008
4440	0.055084	-0.015564
4441	-0.004883	0.027924
4442	0.009003	0.022736
4443	0.053558	-0.016479
4444	-0.004883	0.056763
4445	0.070953	0.019226
4446	-0.007782	0.059509
4447	0.044098	0.013733
4448	0.060272	0.028839
4449	0.021667	0.013428
4450	0.060272	0.036011
4451	-0.023804	0.003052
4452	0.078888	0.002136
4453	0.023651	0.035553
4454	0.003052	0.056152
4455	0.01236	0.048218
4456	-0.030212	0.036469
4457	0.038452	0.04425
4458	-0.026855	0.047455
4459	0.009155	0.01297
4460	-0.002136	0.030975
4461	0.029755	0.011292
4462	-0.00824	0.051575
4463	-0.000458	0.029144
4464	0.006256	0.037384
4465	0.003052	-0.00061
4466	0	0.036011
4467	0.033875	0.028076
4468	0.041962	0.028534
4469	0.016785	0.032806
4470	0.016022	0.000916
4471	0.023499	0.067902
4472	0.041809	0.010529
4473	0.059204	0.048676
4474	0.014801	0.013123
4475	0.025177	0.059204
4476	0.084991	0.064087
4477	0.033112	0.009766
4478	0.00885	0.016022
4479	0.091248	0.011902
4480	0.04425	0.005493
4481	0.032349	0.025787
4482	0.065155	0.063629
4483	0.080414	-0.00412
4484	0.047913	0.037384
4485	-0.048676	-0.027466
4486	0.003815	0.052338
4487	0.050049	0.025177
4488	0.063171	0.002289
4489	0.004883	0.031891
4490	0.080414	-0.005798
4491	0.023651	0.05188
4492	0.053406	0.015259
4493	-0.076447	0.052795
4494	0.038757	0.001678
4495	0.016327	0.051422
4496	0.023041	0.053864
4497	0.038452	0.026245
4498	0.009308	0.040894
4499	0.107269	0.042419
4500	0.011749	0.06073
4501	0.032349	0.00946
4502	0.001526	0.032043
4503	0.062866	0.005493
4504	-0.009613	0.024719
4505	0.036163	0.021057
4506	0.025787	0.043335
4507	0.00351	0.011444
4508	0.050507	0.025024
4509	0.008545	0.037384
4510	0.064087	-0.014954
4511	0.039063	0.023499
4512	0.037384	0.004883
4513	0.022736	0.024872
4514	-0.028381	0.03479
4515	0.017242	0.012512
4516	0.051575	0.00061
4517	0.063934	0.007477
4518	-0.002899	0.032501
4519	0.033569	0.004425
4520	0.037231	0.072784
4521	0.018158	0.000153
4522	-0.003967	0.024719
4523	-0.042267	0.019226
4524	0.050507	0.028381
4525	0.065918	0.004578
4526	0.024261	0.053101
4527	-0.015564	0.032043
4528	0.075073	0.021362
4529	-0.02182	0.016632
4530	0.086823	0.002289
4531	0.023651	0.024109
4532	0.007935	0.032959
4533	0.028076	0.019226
4534	-0.042725	0.058594
4535	0.052032	0.074921
4536	-0.005493	0.040283
4537	0.045929	0.009155
4538	-0.013123	0.053101
4539	0.019836	0.045166
4540	0.038452	0.094452
4541	0.016937	0.039215
4542	0.018158	0.032196
4543	-0.026855	0.027618
4544	0.012817	-0.016327
4545	0.050354	0.006561
4546	0.067902	0.042267
4547	0.012054	0.054016
4548	0.047455	0.002747
4549	0.027618	0.024872
4550	-0.003204	0.015106
4551	0.038605	0.010376
4552	0.079956	-0.025787
4553	0.029602	0.010223
4554	0.034637	0.027008
4555	0.075226	0.027924
4556	0.061798	0.038605
4557	-0.001526	-0.003662
4558	0.086517	0.026093
4559	0.00061	0.00885
4560	0.092316	0.008392
4561	0.006409	0.041504
4562	0.077515	0.00061
4563	0.005341	0.028839
4564	0.053558	0.001373
4565	0.03418	0.038147
4566	0.053253	0.036469
4567	0.083008	0.03418
4568	-0.037231	0.024109
4569	0.046082	0.029755
4570	0.031586	0.052032
4571	0.031433	0.027771
4572	-0.009003	0.034027
4573	0.07019	-0.000916
4574	-0.100555	0.050812
4575	0.009613	0.029602
4576	0.037537	0.044708
4577	-0.0177	0.020905
4578	0.007172	0.043793
4579	-0.039063	0.047302
4580	0.018768	-0.015869
4581	-0.041504	0.038757
4582	0.00061	0.034332
4583	0.018616	0.037689
4584	-0.01358	0.048523
4585	0.076752	0.031738
4586	0.007172	0.001984
4587	0.010529	0.006866
4588	-0.020447	0.032501
4589	-0.015259	0.007172
4590	0.024109	0.041962
4591	-0.030823	-0.000763
4592	0.025177	0.020447
4593	-0.00061	-0.001221
4594	0.043945	0.032654
4595	-0.014648	0.03418
4596	-0.023193	-0.001526
4597	0.105438	0.037537
4598	-0.004272	0.022278
4599	0.016327	0.032349
4600	0.000458	-0.004883
4601	0.087585	0.033417
4602	0.004272	0.01709
4603	0.007324	0.009308
4604	0.052185	0.026398
4605	0.076752	0.015564
4606	0.046539	0.012512
4607	0.001068	-0.016937
4608	0.100861	0.009918
4609	0.006409	0.036621
4610	-0.009003	0.020294
4611	0.030365	0.03006
4612	0.012512	0.042267
4613	0.02533	-0.005035
4614	0.015259	0.009613
4615	0.038452	0.006866
4616	0.015259	0.031128
4617	0.017395	0.014648
4618	0.001526	0.070343
4619	0.021667	-0.00473
4620	0.079651	0.040588
4621	0.066528	0.018311
4622	0.006256	0.029449
4623	-0.009766	0.044861
4624	-0.01358	0.050507
4625	0.027466	0.039215
4626	0.011749	-0.041046
4627	0.062256	0.027924
4628	0.017548	0.026398
4629	0.056152	0.072479
4630	0.016022	0.017853
4631	0.078888	0.005951
4632	0.001831	0.008698
4633	0.023346	0.014801
4634	-0.01236	0.046844
4635	0.014191	0.015717
4636	0.059357	0.033112
4637	0.04364	0.042572
4638	0.05722	0.025177
4639	-0.04776	0.037079
4640	0.067139	0.029449
4641	0.01236	0.057831
4642	0.043335	-0.007935
4643	0.033722	0.020294
4644	0.031433	0.018768
4645	0.049438	0.05249
4646	0.062561	-0.001221
4647	0.0737	0.017853
4648	0.014496	0.023804
4649	0.04364	0.01297
4650	0.072784	0.050507
4651	0.006561	0.024261
4652	0.009766	0.021515
4653	0.032654	0.013123
4654	-0.002289	0.024414
4655	-0.01709	0.034485
4656	0.070953	0.013123
4657	-0.019684	0.026093
4658	0.085144	-0.012054
4659	-0.006714	0.055084
4660	0.062408	-0.004883
4661	0.10849	0.007172
4662	0.041046	-0.019073
4663	0.054626	0.022278
4664	-0.035553	0.004883
4665	0.112152	0.023956
4666	0.02533	0.031586
4667	0.027161	0.029297
4668	0.01236	0.040588
4669	-0.011292	0.025024
4670	0.041504	0.070801
4671	-0.008698	0.059357
4672	0.009155	0.05127
4673	-0.008087	0.014191
4674	0.03891	0.006866
4675	0.05661	0.028381
4676	0.06897	0.016937
4677	0.019226	0.012207
4678	0.033264	0.037994
4679	0.032043	0.026703
4680	-0.039215	0.074615
4681	-0.022278	0.007782
4682	-0.03067	0.063782
4683	0.018311	0.013733
4684	-0.005188	0.05661
4685	-0.036316	0.036163
4686	0.034332	0.042114
4687	-0.010681	0.057983
4688	0.003662	0.046234
4689	0.006104	0.072174
4690	-0.023193	0.009918
4691	0.074921	0.029449
4692	0.029297	0.008392
4693	0.03891	0.040131
4694	0.02182	-0.011139
4695	0.071106	-0.005341
4696	-0.006561	0.057678
4697	0.07843	0.002594
4698	0.045013	0.042877
4699	-0.00824	-0.006714
4700	0.037994	0.035706
4701	0.004272	0.022278
4702	-0.003357	0.041809
4703	-0.003815	-0.017548
4704	0.037231	0.040283
4705	0.051727	0.027161
4706	0.057068	0.010986
4707	0.02533	0.052795
4708	0.025177	0.009003
4709	0.0383	0.039825
4710	0.027771	-0.002441
4711	0.075378	-0.002441
4712	0.048981	0.013733
4713	0.018921	0.01236
4714	0.027618	0.016174
4715	0.026703	0.00351
4716	0.029755	0.018768
4717	-0.027618	-0.043488
4718	0.014343	0.026855
4719	0.074158	0.043945
4720	0.044098	0.019836
4721	0.034027	0.03006
4722	0.027161	0.006256
4723	0.051575	0.006866
4724	-0.062103	0.00412
4725	0.068207	0.020142
4726	-0.001526	0.041809
4727	0.005341	0.027924
4728	0.027618	0.040588
4729	0.028992	-0.001526
4730	0.049744	0.039978
4731	-0.042419	0.017853
4732	0.078888	0.020447
4733	-0.014038	0.024719
4734	0.066528	0.030823
4735	0.017853	0.017853
4736	0.047302	-0.00412
4737	0.024719	0.014191
4738	0.029297	0.033264
4739	0.055847	0.02243
4740	-0.026855	0.037079
4741	0.048981	0.045776
4742	-0.021973	0.053406
4743	0.034027	-0.00061
4744	-0.015106	0.028534
4745	0.055084	-0.018158
4746	0.003204	0.043488
4747	0.000916	-0.014954
4748	0.021667	0.038605
4749	0.005188	0.011139
4750	0.074768	0.019531
4751	0.041504	0.029907
4752	0.047302	0.038605
4753	0.013123	0.023193
4754	0.042267	0.02243
4755	-0.001221	0.029297
4756	-0.002594	-0.001678
4757	0.039978	0.052032
4758	0.009766	0.01709
4759	0.020447	0.01709
4760	0.01709	0.039368
4761	0.061188	0.007324
4762	0.008392	0.083923
4763	0.020905	-0.000153
4764	0.035858	0.022888
4765	0.012207	0.003815
4766	0.029907	-0.007324
4767	0.010223	0.002136
4768	0.057831	0.005035
4769	0.028992	0.064545
4770	0.052032	0.018005
4771	0.06958	0.023346
4772	0.003052	0.014343
4773	0.013885	0.007324
4774	0.026855	0.018921
4775	0.034485	0.002289
4776	0.021362	0.040283
4777	0.065918	0.010681
4778	0.033722	0.018921
4779	-0.015106	0.006866
4780	0.013428	0.047607
4781	-0.004425	0.021667
4782	0.042267	0.009308
4783	-0.006714	0.021362
4784	0.038757	0.025024
4785	-0.003967	0.049896
4786	0.053558	0.006561
4787	0.00885	-0.011902
4788	0.037231	0.00824
4789	0.00946	0.02655
4790	-0.002594	0.039673
4791	0.052338	-0.009155
4792	0.009308	0.034332
4793	0.029755	0.024261
4794	-0.03067	0.04303
4795	0.013275	0.014801
4796	-0.00061	0.00824
4797	0.016022	0.031738
4798	0.036011	0.02243
4799	0.017242	0.006714
4800	-0.009613	0.026245
4801	-0.009613	0.026245
4802	0.033875	0.000305
4803	0.009308	0.032959
4804	0.021057	0.012512
4805	0.039673	0.011292
4806	0.039825	-0.026398
4807	0.04364	0.031586
4808	0.000916	0.025482
4809	0.075531	0.026093
4810	-0.001373	0.029144
4811	0.043793	-0.018921
4812	0.014648	0.042419
4813	0.055389	-0.000153
4814	0.014038	0.071869
4815	0.027771	0.001373
4816	0.017242	0.051117
4817	0.027161	0.004425
4818	0.010834	0.082397
4819	0.029144	0.00061
4820	0.018616	0.038757
4821	0.007782	0.047607
4822	0.026245	0.032501
4823	-0.012054	0.027466
4824	0.006714	0.03067
4825	0.021973	0.052643
4826	0.005188	0.038757
4827	0.048981	0.06134
4828	0.011749	0.034332
4829	0.016327	0.029449
